465
460
463
450
429
424
449
481
489
495
493
492
497
518
540
550
556
541
519
502
503
497
482
477
468
474
490
492
486
497
515
532
536
537
537
544
557
556
543
518
497
483
485
486
495
496
511
531
542
535
526
543
564
572
549
534
534
520
495
471
450
419
385
384
407
432
447
461
475
468
482
486
494
515
510
505
509
496
494
512
520
560
580
602
598
591
576
553
533
513
516
513
496
488
487
494
494
502
511
496
478
463
467
473
450
406
401
451
489
520
529
536
528
524
527
518
515
519
526
522
515
532
545
542
531
536
554
562
556
542
535
531
531
521
498
480
463
449
449
443
447
448
452
441
418
414
448
486
501
515
515
529
542
547
546
548
554
578
584
580
562
529
496
464
430
417
407
384
393
438
483
545
572
579
579
582
568
568
595
620
615
636
630
606
573
544
491
425
390
350
322
310
268
251
339
399
435
475
513
536
565
585
575
560
559
563
576
586
579
576
562
558
577
561
538
505
474
447
426
411
434
495
547
569
586
565
585
607
600
573
542
515
473
437
413
380
367
369
372
398
420
412
437
492
524
556
572
548
535
512
494
506
526
548
559
548
542
542
540
537
571
611
655
693
704
691
648
606
577
525
454
396
320
248
193
156
160
205
237
312
423
522
600
639
658
685
698
723
730
693
690
683
675
632
567
512
459
401
330
255
198
145
182
249
327
451
549
597
658
744
815
798
764
763
750
694
608
515
467
456
406
324
223
129
47
116
271
379
454
484
516
573
647
678
657
625
590
564
574
587
596
598
583
572
571
566
560
551
566
570
559
538
519
500
476
453
431
411
407
402
418
419
423
457
486
503
498
491
502
515
518
522
523
531
533
533
560
594
605
606
600
591
570
535
492
454
419
403
410
404
382
382
402
438
471
492
498
504
491
498
525
535
548
532
552
590
667
696
681
670
634
592
536
468
402
342
281
265
284
294
315
348
430
513
543
567
559
552
559
574
586
591
602
601
594
582
568
564
589
601
593
580
570
550
537
506
441
385
357
335
360
371
345
403
480
533
560
530
480
457
450
465
471
492
493
529
529
551
582
581
577
575
566
574
568
548
540
536
552
556
536
527
528
516
496
474
470
456
430
407
428
462
503
533
540
533
501
457
450
452
444
412
362
376
457
502
520
560
590
614
633
607
578
561
549
523
499
470
452
440
451
471
500
508
512
532
564
613
632
632
623
572
542
555
497
477
485
486
481
483
460
431
382
321
276
224
224
253
347
476
568
620
652
695
677
650
595
542
514
495
491
475
515
564
565
540
528
527
527
515
494
484
536
593
611
650
703
689
647
625
581
513
441
385
353
315
239
220
260
304
321
347
361
369
385
441
580
699
741
703
730
803
825
764
668
560
433
326
263
255
204
140
211
367
530
630
645
606
571
568
563
556
554
558
547
552
577
579
574
575
592
607
598
593
590
569
539
498
472
456
439
429
408
372
344
344
398
444
499
531
561
571
623
677
660
632
620
621
597
534
452
344
240
208
198
228
233
265
383
502
626
678
672
650
612
603
596
556
531
511
526
555
562
563
551
536
534
528
525
515
511
509
508
507
504
523
532
523
519
521
543
551
539
527
489
449
426
415
412
404
401
443
508
565
580
577
568
544
535
517
499
488
454
420
367
366
384
414
453
484
521
568
588
619
629
611
582
559
552
549
551
531
477
429
424
432
427
440
465
476
499
522
521
509
504
538
570
589
606
585
562
526
482
448
414
374
379
401
441
461
513
580
624
615
583
556
506
486
470
475
479
525
555
549
530
544
527
489
443
383
361
377
406
457
484
481
509
544
564
573
590
617
620
605
579
553
521
492
457
425
409
412
441
496
534
595
612
612
613
575
534
498
444
391
319
287
316
343
381
450
548
616
640
636
619
593
559
530
519
503
494
469
508
524
523
515
517
501
502
522
541
552
542
496
455
419
413
421
454
472
487
510
508
503
516
520
530
576
569
585
614
640
628
587
526
448
389
354
335
341
358
396
475
544
574
578
562
536
532
519
522
528
537
546
529
502
505
510
510
492
478
495
498
515
536
515
499
512
514
500
486
478
465
477
483
483
496
507
499
529
540
537
521
501
493
502
519
519
508
506
515
511
503
503
498
516
530
550
561
568
519
475
448
423
428
438
442
481
540
594
602
605
577
538
519
530
511
488
435
398
387
396
409
415
405
395
425
464
509
534
560
573
577
572
564
571
576
566
559
551
545
547
543
532
528
517
516
506
499
493
489
497
503
500
498
491
491
506
507
508
509
511
504
502
493
486
470
467
471
479
472
455
454
463
463
464
499
557
582
575
553
532
532
536
513
509
528
551
553
529
513
518
496
459
437
429
414
382
384
411
457
501
519
517
540
564
595
609
597
588
584
566
541
531
515
499
482
464
454
440
428
420
435
470
487
517
557
561
558
556
561
571
573
547
515
478
449
440
439
415
403
447
498
531
538
523
527
539
550
536
514
500
493
496
510
514
515
519
522
520
509
493
493
505
514
513
502
477
472
475
485
489
493
494
491
488
461
454
486
508
532
569
592
599
588
568
563
547
525
505
464
440
428
427
421
423
423
446
464
505
537
554
556
556
556
558
568
576
574
559
527
500
473
466
472
479
475
474
508
521
521
494
459
452
463
464
480
490
490
467
453
430
433
451
468
479
518
544
575
602
611
602
580
556
532
519
528
515
487
476
487
510
513
505
495
480
474
484
495
497
487
500
496
499
504
504
505
514
515
529
535
536
533
528
523
517
492
482
475
467
464
463
468
467
472
488
509
524
528
548
561
552
541
516
489
462
450
447
456
448
448
480
521
543
548
555
548
539
530
519
509
498
493
497
513
532
538
541
539
530
525
501
480
460
443
425
409
428
480
513
529
518
510
507
519
528
539
531
526
522
517
503
521
520
501
484
486
487
486
480
489
513
527
531
541
552
537
519
503
485
478
477
474
471
475
489
501
509
520
521
525
527
533
543
546
546
531
513
502
492
481
468
452
458
456
462
475
487
505
520
524
529
534
533
527
519
511
505
509
508
508
524
519
527
532
538
537
542
548
549
527
491
480
496
481
464
447
429
417
404
426
455
477
493
499
501
515
511
518
511
498
504
510
523
534
541
536
530
526
526
525
523
519
519
508
507
507
509
531
532
533
545
548
547
531
518
508
500
499
494
477
465
452
431
429
435
428
428
428
450
494
524
533
551
554
551
542
535
534
531
533
539
535
544
540
543
554
564
579
571
547
508
465
438
412
393
379
353
370
440
499
524
544
548
533
531
540
548
548
545
534
536
549
547
542
533
517
504
489
481
483
475
455
443
441
443
448
461
496
515
534
537
526
540
555
553
544
543
546
529
523
518
507
498
483
487
489
486
485
484
476
477
475
480
479
490
489
489
518
540
546
542
525
509
495
483
470
460
460
475
494
522
528
532
537
536
527
526
519
515
512
516
509
508
504
508
508
511
516
516
524
528
530
542
547
556
547
519
501
474
464
461
447
415
393
406
425
436
447
464
486
496
515
549
576
583
568
548
538
529
530
519
518
519
520
522
525
517
502
488
475
474
467
460
465
475
484
498
511
516
518
523
522
521
525
523
522
520
513
517
517
510
509
508
507
512
513
513
516
520
521
518
511
499
485
477
472
461
465
457
461
491
510
517
524
529
521
517
515
507
519
518
522
538
544
536
537
534
521
510
487
474
455
447
433
430
423
433
443
482
523
539
541
540
533
529
548
545
539
532
526
531
531
533
525
516
504
485
504
501
491
483
480
481
478
467
471
486
491
493
492
484
484
479
487
505
530
533
531
528
527
528
523
522
518
518
518
513
515
511
507
509
508
511
504
505
499
502
502
502
501
501
499
500
502
500
500
504
504
504
497
502
504
504
502
504
503
501
500
505
503
506
507
505
505
502
505
502
502
502
504
507
504
504
503
500
503
504
503
500
505
504
503
501
503
507
509
509
502
506
506
507
504
506
504
507
505
504
505
505
505
505
504
507
504
506
505
505
505
502
504
506
504
506
502
506
503
504
505
499
499
506
498
502
501
503
509
505
505
504
502
504
507
504
505
507
505
504
505
506
510
508
504
505
503
505
499
499
501
503
503
508
503
504
498
500
501
499
499
499
499
511
514
511
506
508
505
504
504
502
499
502
502
502
504
503
504
508
510
510
512
508
509
507
504
504
502
501
496
494
500
499
502
501
499
503
499
502
514
513
508
505
502
504
503
509
507
506
510
505
507
509
509
506
504
501
502
505
505
503
505
502
500
507
502
500
508
508
503
504
505
510
503
502
504
503
504
504
502
506
507
499
503
501
507
503
504
510
504
504
509
504
507
503
504
508
505
504
500
507
503
503
505
507
504
507
507
507
508
506
504
503
497
502
502
507
504
504
504
504
504
505
503
502
503
504
502
505
510
509
506
507
505
504
504
504
504
507
504
504
505
504
505
505
504
502
501
506
502
503
508
507
506
504
504
502
504
502
507
504
501
500
505
509
502
508
504
503
502
503
503
506
507
503
502
505
504
504
507
503
506
505
501
504
504
502
502
507
505
506
505
505
504
504
508
504
503
501
504
504
507
504
507
508
504
507
504
504
509
503
504
508
504
505
504
507
504
505
502
500
503
504
505
499
505
504
504
507
504
503
504
501
505
504
502
504
505
508
506
504
505
504
503
504
505
503
503
502
502
503
503
498
504
504
503
504
503
505
508
507
511
507
507
510
506
502
508
505
502
502
506
500
504
509
505
506
504
506
507
503
502
503
502
504
508
504
504
506
507
507
507
503
508
508
509
506
509
504
505
504
504
505
505
502
503
507
503
503
502
503
507
503
502
506
502
507
507
506
506
504
502
505
505
504
504
503
507
500
502
502
504
505
505
504
505
502
504
503
507
502
504
501
504
509
507
504
503
507
505
503
506
504
504
504
503
504
503
506
503
506
503
505
508
504
506
504
504
504
504
503
507
503
508
505
503
505
508
505
504
504
500
502
508
504
507
504
504
503
504
505
505
507
502
504
504
500
505
503
504
500
506
506
507
505
508
504
503
504
507
499
505
506
506
506
506
506
504
504
506
501
502
505
505
503
499
504
507
505
508
505
508
504
502
502
502
502
504
502
503
506
503
503
509
507
505
506
502
501
503
504
504
502
502
502
501
501
499
499
508
503
508
505
508
507
505
502
506
502
505
504
505
503
506
503
503
505
502
506
504
506
504
505
507
507
507
501
504
502
503
502
507
505
504
505
508
504
504
503
504
500
506
507
503
506
502
505
504
505
505
504
504
505
502
506
505
505
505
505
512
504
506
504
505
502
504
504
504
507
501
502
503
505
502
501
503
505
502
505
504
505
500
504
502
505
506
509
504
504
504
504
500
507
503
507
504
502
507
504
503
505
505
502
508
505
503
504
506
508
505
506
505
499
503
503
502
502
503
504
503
497
502
502
505
502
504
506
508
501
508
501
504
502
507
503
508
502
503
505
504
504
501
505
503
507
504
507
502
505
507
503
506
498
502
503
504
503
502
502
504
501
502
505
503
506
505
507
506
506
504
504
504
507
504
505
501
502
504
504
502
505
506
506
505
505
502
501
502
501
502
504
501
499
502
506
506
503
507
503
509
502
504
506
508
504
505
504
506
504
507
500
504
503
502
504
505
501
504
500
504
501
500
509
507
505
505
507
506
505
501
502
502
507
502
506
501
501
501
502
510
501
504
502
502
506
502
508
505
509
505
508
505
506
502
502
503
508
504
505
501
505
507
507
506
505
501
504
504
504
503
510
503
502
505
503
506
505
509
505
505
502
504
504
505
507
504
502
505
504
508
504
506
504
506
505
504
503
501
504
507
503
506
504
505
505
510
503
504
503
504
504
505
507
504
505
503
504
502
501
504
507
504
502
501
504
505
502
504
504
506
504
503
508
505
504
504
505
504
505
502
504
503
505
506
501
502
509
505
503
502
507
496
506
502
505
507
504
506
506
504
502
504
502
504
508
508
505
509
506
505
506
499
503
504
504
504
505
506
505
503
505
507
506
505
507
504
503
505
506
505
502
505
504
502
500
508
506
505
504
502
505
504
504
502
506
502
502
504
504
506
502
509
511
505
503
503
503
506
505
509
501
506
502
505
501
503
502
504
504
503
505
504
505
505
504
502
503
503
506
507
501
506
506
506
503
504
502
503
506
504
505
505
504
508
504
503
502
505
503
504
502
501
506
500
506
503
502
502
504
505
504
505
507
508
510
508
513
508
506
502
502
503
503
502
498
500
501
502
503
507
507
510
511
509
507
511
507
505
502
503
503
505
503
501
507
503
502
505
504
505
503
508
504
503
508
506
507
504
507
504
503
499
506
501
506
502
507
503
505
506
504
500
504
504
510
505
502
506
502
503
505
501
506
508
505
504
502
500
507
502
501
500
505
502
503
500
502
507
505
507
506
503
504
504
505
504
507
504
503
507
507
505
502
500
503
505
501
503
497
500
500
504
506
506
510
503
506
506
505
508
504
505
508
501
504
503
506
504
507
504
502
503
505
500
503
504
504
505
506
506
504
507
503
504
501
504
504
508
505
507
506
504
507
504
503
505
507
504
505
507
506
502
501
501
498
500
503
506
508
506
508
505
507
504
507
503
504
501
502
502
504
502
504
504
503
508
506
508
506
505
503
506
507
505
501
502
504
502
506
508
501
503
508
504
504
503
504
505
504
504
505
506
505
501
504
499
505
505
505
505
505
503
506
507
505
503
501
507
505
504
507
504
502
500
502
503
504
506
508
505
505
508
508
505
509
510
504
505
504
506
502
498
500
499
499
503
502
503
512
515
510
505
509
507
508
504
507
508
514
507
502
500
500
501
494
495
495
495
496
499
503
510
513
512
512
509
508
507
505
507
507
502
502
506
505
502
503
504
508
507
507
504
504
504
503
504
503
501
504
502
508
506
505
508
507
505
507
504
506
507
502
501
500
502
505
500
502
500
502
506
500
508
508
509
503
502
504
503
504
503
502
503
504
501
507
506
504
508
508
505
511
508
510
506
505
504
503
502
502
498
496
498
496
496
498
504
505
511
509
513
505
508
505
506
507
502
506
508
508
504
497
505
504
509
505
504
507
507
502
507
498
501
505
501
502
502
503
504
507
506
508
508
504
503
503
502
506
503
503
502
506
504
503
505
505
504
508
509
507
507
504
502
503
504
505
502
504
508
504
506
504
503
502
503
501
503
505
507
505
501
499
505
508
500
503
501
502
505
508
509
509
508
503
508
505
505
504
504
505
504
505
503
504
505
504
504
504
503
507
504
508
508
509
505
507
508
512
509
509
507
500
501
497
497
497
498
501
502
497
497
499
506
516
524
520
512
516
518
513
510
505
501
491
489
485
480
482
483
482
492
492
494
505
514
517
516
519
516
516
515
509
510
510
504
502
505
505
506
504
504
504
503
502
504
502
505
502
505
506
505
509
506
506
503
507
505
508
505
505
502
502
503
511
509
504
506
503
504
506
504
504
501
503
503
499
503
504
508
508
510
505
510
507
504
501
499
502
502
501
503
499
503
507
508
505
507
509
511
507
508
506
504
507
506
510
510
509
505
502
504
503
502
504
500
498
499
495
498
499
503
504
508
508
505
506
501
510
505
507
506
510
508
508
507
510
505
503
506
504
501
502
506
504
505
503
503
504
504
507
510
503
508
507
510
507
512
514
515
510
510
508
507
502
499
497
495
493
487
490
486
487
488
493
499
508
509
515
513
515
520
515
512
512
512
508
508
512
508
507
507
507
508
503
504
505
503
498
501
496
504
504
504
506
508
509
506
507
504
505
505
506
509
505
508
505
506
509
507
502
504
502
499
502
501
501
504
501
503
504
503
507
505
504
508
504
506
507
505
500
495
496
498
496
498
507
508
508
509
511
508
509
505
505
502
508
508
503
500
505
502
500
503
506
506
502
507
508
510
507
506
502
501
504
501
500
496
496
497
496
500
505
506
509
510
508
508
507
507
505
507
505
507
503
506
503
500
504
504
508
509
508
508
511
508
509
505
504
506
504
506
503
500
500
493
497
497
495
499
502
500
501
506
508
510
512
511
511
504
508
504
502
503
501
504
508
505
508
506
503
505
504
503
504
502
505
499
505
508
508
511
505
511
504
511
509
500
502
496
495
495
487
494
499
496
503
504
504
499
504
501
507
510
510
513
516
512
512
509
507
510
509
506
507
506
509
503
505
504
507
504
503
509
505
499
503
503
504
499
503
505
504
506
504
506
509
511
511
512
504
504
504
499
500
495
491
493
493
495
495
497
497
507
509
507
510
514
509
509
508
508
508
506
509
510
506
504
507
508
505
504
498
502
502
505
503
505
505
502
501
502
504
504
504
507
505
499
504
504
503
505
502
503
502
505
502
504
504
506
507
508
505
503
501
504
508
499
504
504
507
504
501
504
504
507
509
504
507
505
508
504
506
507
507
504
508
502
503
504
500
502
501
500
499
495
493
493
499
499
502
511
515
517
510
511
508
505
508
508
505
505
504
504
505
500
505
500
501
508
505
504
498
505
504
504
504
504
508
504
506
504
504
502
503
503
502
496
505
508
510
511
505
510
509
507
502
504
497
496
499
499
495
491
495
495
510
511
512
511
512
507
509
508
501
504
508
505
504
508
512
513
516
515
519
517
517
516
511
502
498
498
493
484
483
481
480
477
480
487
491
502
508
516
520
526
523
520
516
519
515
512
514
513
505
505
506
500
500
503
501
503
502
499
494
503
500
506
508
504
504
503
505
504
504
504
508
502
504
505
507
507
504
503
509
507
507
503
507
503
508
504
504
507
504
505
500
505
502
501
503
503
507
508
508
507
504
502
504
503
502
503
501
504
502
498
503
500
501
504
508
509
505
507
508
509
504
507
503
504
504
504
506
502
504
500
506
500
504
505
504
504
504
505
500
503
504
507
504
503
505
507
504
499
505
506
506
501
505
507
509
504
507
507
505
513
506
506
507
504
508
500
497
499
497
494
492
492
499
510
504
505
508
512
513
512
511
506
505
509
508
509
505
507
508
511
505
507
504
509
503
505
502
503
499
499
495
498
501
503
501
503
503
504
504
507
508
516
513
511
509
510
504
506
504
505
507
505
510
508
503
507
504
505
508
506
504
499
503
505
503
508
506
512
509
508
508
508
509
504
502
502
501
502
504
502
505
504
504
507
497
499
496
500
496
494
496
495
499
497
499
504
509
518
513
512
515
510
511
514
513
515
514
508
508
507
501
494
497
495
493
491
486
492
502
507
506
504
508
509
512
509
511
509
511
509
512
508
506
503
497
496
497
502
500
496
500
498
500
509
511
514
505
506
503
504
503
507
509
511
508
508
509
503
508
508
502
505
507
507
508
505
505
505
501
504
509
502
505
507
508
504
502
499
500
500
501
499
500
504
507
509
507
506
502
506
506
505
502
507
503
507
508
505
502
501
501
497
498
497
500
500
505
511
517
518
523
518
521
515
513
506
499
496
499
489
489
484
485
483
487
497
504
502
506
504
510
512
519
519
514
516
512
512
505
507
506
508
511
508
507
507
505
508
504
504
503
504
505
504
505
499
499
500
498
498
502
495
495
499
503
508
505
508
504
512
506
510
508
507
504
508
505
508
499
504
506
506
504
505
506
503
506
504
505
505
507
506
504
505
506
511
508
511
507
507
510
507
504
502
505
503
499
498
502
499
502
503
502
500
493
492
492
492
503
511
512
513
506
504
504
505
504
505
507
512
521
519
522
516
511
512
509
508
502
503
500
502
497
495
495
492
494
492
496
502
506
506
512
512
514
514
510
509
507
504
504
504
508
502
504
502
505
508
506
507
503
505
504
503
502
501
504
500
500
504
507
504
501
501
501
505
507
504
504
503
505
502
504
502
503
503
500
507
507
508
506
504
505
507
507
503
505
502
498
496
496
501
499
502
507
511
513
510
507
508
508
508
502
498
499
497
491
493
492
486
492
499
501
507
512
516
513
506
507
509
508
503
504
508
505
508
507
509
511
514
513
506
504
502
502
501
497
497
491
487
492
491
503
504
508
507
502
500
499
498
503
505
501
508
513
514
511
510
503
503
500
503
504
503
509
509
510
505
506
505
505
499
499
503
502
502
502
504
506
506
507
504
502
508
508
508
504
501
503
501
503
507
501
502
503
508
507
509
510
507
512
510
508
509
509
504
502
497
494
490
492
492
494
491
494
503
501
505
508
510
511
514
509
507
511
515
511
515
513
516
516
510
499
504
496
495
492
492
487
488
492
503
503
507
515
512
504
500
497
500
498
502
499
501
504
506
507
510
511
514
516
511
508
503
506
507
505
506
509
505
503
505
502
506
503
504
503
505
499
501
504
502
506
503
503
504
505
505
505
508
507
504
508
508
503
512
512
504
497
503
496
496
496
499
498
501
501
501
503
507
505
503
511
512
508
508
511
510
512
508
506
504
503
503
503
499
494
492
489
491
499
499
503
503
507
511
513
512
510
511
504
505
502
505
500
500
502
512
515
516
509
509
514
512
507
503
500
491
490
494
495
494
498
502
503
502
504
510
512
516
514
514
512
509
507
512
505
506
504
499
500
504
501
500
497
496
495
504
505
507
507
503
505
499
497
497
497
497
496
499
504
513
513
512
504
506
511
508
509
506
507
504
505
507
505
504
502
508
510
504
508
507
504
503
504
507
503
499
502
501
501
502
505
508
507
514
512
508
509
512
518
516
515
517
509
499
493
484
482
477
479
472
477
491
510
522
527
525
529
531
525
520
519
506
499
490
486
482
481
481
486
484
491
499
512
518
529
523
518
515
510
504
507
503
504
504
499
502
504
504
508
510
508
511
505
510
506
508
503
500
504
498
503
499
496
496
499
498
500
504
511
512
512
511
506
503
505
508
507
512
515
515
521
524
523
529
518
517
507
492
480
476
472
472
472
471
466
468
479
495
509
509
511
507
506
504
503
510
517
527
528
520
515
514
512
508
506
507
508
512
510
507
508
508
505
507
506
501
500
500
500
497
496
499
503
502
502
505
506
504
507
511
510
504
502
505
505
505
512
511
509
509
508
505
499
500
498
495
490
491
496
489
494
494
500
496
500
506
513
519
517
512
511
510
511
514
511
514
513
512
514
513
515
512
514
513
509
508
500
491
480
475
471
467
466
468
468
479
507
518
523
518
513
514
518
518
518
527
520
521
516
512
516
520
519
513
509
510
504
501
500
502
501
500
499
495
499
489
486
477
473
476
487
495
497
501
503
503
514
524
534
529
523
521
519
522
523
518
516
508
506
495
487
488
483
479
476
476
482
492
503
507
513
515
514
514
519
519
516
514
512
516
521
521
521
520
524
528
520
515
508
495
488
478
476
469
462
461
459
468
495
513
517
518
518
525
519
520
517
515
512
511
508
510
510
511
511
516
515
516
521
518
518
513
505
502
496
495
490
487
482
473
471
486
493
500
499
511
519
531
535
534
529
536
520
508
494
491
487
487
492
497
492
500
498
500
507
512
510
506
499
487
476
482
477
473
463
455
467
478
486
501
512
526
554
559
555
566
561
563
561
547
544
527
507
496
481
480
487
486
472
459
479
488
502
500
510
518
503
495
488
482
491
497
477
456
473
475
487
481
487
484
480
483
506
524
527
532
542
551
551
535
519
496
487
492
519
525
518
523
530
532
525
519
505
493
477
491
499
495
492
497
498
511
522
528
551
550
525
506
504
511
501
477
448
424
425
425
435
464
496
510
526
549
557
576
598
623
610
605
618
632
612
571
507
449
393
344
310
304
291
272
263
332
447
534
591
647
638
623
618
627
599
568
544
520
499
496
483
484
484
476
465
456
464
459
465
496
521
549
589
600
612
598
558
515
477
456
457
461
460
454
454
465
491
511
513
547
566
579
582
581
555
517
496
475
443
404
376
407
448
501
524
521
537
536
528
559
582
546
490
455
458
463
467
479
474
475
487
494
489
467
443
460
467
510
551
566
566
554
563
550
527
516
518
508
502
504
504
500
510
521
518
500
491
496
523
548
534
503
466
465
459
441
420
420
446
487
532
599
640
625
596
554
519
487
468
449
429
417
438
472
490
504
519
540
545
571
571
577
543
502
489
511
542
541
536
559
556
548
527
491
452
431
424
391
369
377
376
399
418
467
507
507
511
497
468
476
544
573
560
580
597
617
615
604
592
589
589
565
540
516
499
443
403
405
404
398
403
432
490
534
559
573
585
607
611
628
603
579
560
521
489
414
383
355
308
296
285
306
337
323
430
552
654
683
664
649
643
634
614
572
537
511
485
449
429
436
445
495
578
617
638
708
724
679
616
561
463
359
298
244
196
177
238
353
429
513
564
593
602
623
641
652
657
662
640
618
562
511
471
423
392
367
347
407
420
399
415
430
456
501
545
604
631
625
591
563
557
549
532
540
552
562
558
539
532
500
467
451
425
423
413
420
440
432
459
492
503
531
584
620
620
602
542
485
451
445
449
459
462
462
482
504
532
531
521
519
500
492
509
524
520
544
610
636
610
598
580
518
470
447
447
426
397
441
498
527
521
437
378
319
318
337
379
353
395
466
521
596
663
679
658
645
643
678
687
678
603
531
464
390
364
369
374
375
365
382
434
507
558
580
600
639
638
633
591
543
475
462
456
459
420
397
460
503
535
561
541
550
591
572
540
467
469
474
504
616
716
685
635
632
633
567
502
373
226
127
111
217
240
193
276
345
451
561
684
741
761
767
696
664
622
539
462
472
484
497
504
490
483
519
544
499
450
423
422
453
514
544
573
639
720
752
692
619
456
333
372
493
542
474
429
363
395
340
354
376
324
461
584
615
566
511
550
592
576
583
510
415
347
349
352
374
452
587
672
793
864
845
783
723
606
467
331
218
97
79
126
216
361
502
588
691
707
713
696
662
638
596
532
467
433
396
357
439
499
656
665
615
691
827
918
810
668
526
415
372
204
45
0
0
147
229
325
514
625
694
673
600
485
542
545
552
597
652
786
878
799
607
509
421
338
282
311
371
391
375
400
441
461
489
441
440
446
414
402
425
512
563
621
723
740
690
625
568
517
495
464
454
392
471
487
530
668
771
743
699
664
660
664
562
472
345
271
266
245
329
327
295
278
291
305
363
389
399
488
686
769
670
709
725
680
648
524
564
542
527
499
445
384
387
399
419
481
461
522
555
606
794
940
905
824
715
565
305
123
37
98
167
139
316
477
510
577
526
424
351
236
343
456
540
603
635
685
681
678
654
638
627
649
724
688
634
615
540
445
444
489
580
653
587
519
455
475
480
396
372
520
518
481
434
327
284
335
306
402
448
477
562
580
620
640
533
447
548
484
437
373
357
351
478
451
532
641
831
878
845
752
549
379
340
238
120
73
251
423
471
463
505
617
886
1022
954
836
694
515
385
251
333
305
316
428
515
474
425
374
335
261
262
348
472
535
603
715
722
647
615
606
572
796
911
963
888
746
644
488
174
26
0
0
0
149
344
463
537
657
712
717
670
707
583
562
597
563
555
532
573
531
447
356
387
412
406
430
437
445
542
582
527
497
564
697
731
764
1022
1022
969
740
422
108
0
0
0
0
0
195
457
831
971
941
1022
1019
886
707
552
394
481
443
402
273
179
158
154
240
182
281
432
576
586
624
609
743
745
727
671
702
777
726
735
667
556
561
517
535
366
245
250
322
480
514
374
288
323
447
675
1022
1022
1022
604
310
71
0
0
0
242
502
477
423
378
671
763
708
819
828
652
509
484
454
292
200
234
293
367
412
545
702
782
773
728
697
675
648
833
781
727
685
749
751
592
675
429
417
591
738
512
164
0
0
0
0
0
52
366
501
633
657
681
871
1022
1020
874
760
662
538
437
336
347
358
489
647
868
1022
881
380
173
0
0
0
223
450
407
428
551
742
1022
1022
1022
919
523
123
0
0
0
31
134
306
499
333
376
612
729
784
748
1004
1022
1022
1022
1022
1022
696
0
0
0
0
0
0
0
412
719
913
888
963
1022
1022
1022
829
472
233
175
0
544
729
915
800
536
361
187
138
193
302
1022
1022
1022
921
317
0
0
0
0
0
288
631
797
996
1022
1022
1019
1022
966
456
0
0
0
0
0
292
441
1022
1022
1022
1022
854
144
0
0
0
0
0
208
273
398
782
1019
1022
1022
1022
800
751
678
291
199
305
298
478
1022
1022
1022
646
0
0
0
0
0
0
387
740
1016
1022
1022
1022
1022
1022
1022
742
0
0
0
0
0
153
439
629
1022
1022
808
730
693
467
363
762
1022
1022
744
531
354
153
221
261
688
686
406
231
298
744
1020
912
815
766
855
448
0
0
0
0
0
369
1022
1022
1022
1022
916
571
0
0
0
0
0
9
481
684
777
1010
1022
1022
1022
1022
618
97
0
0
0
0
0
0
245
752
1022
1022
1022
1022
681
469
278
219
232
247
184
251
273
748
1022
1022
1022
1022
1022
533
0
0
0
0
0
0
483
714
1022
1022
1022
926
822
640
566
482
351
395
587
636
651
612
527
565
751
878
822
559
359
540
540
243
81
92
48
59
442
704
811
704
611
774
679
475
571
604
280
420
722
816
840
598
81
0
0
132
684
831
712
468
44
0
73
494
645
605
592
648
826
940
1000
876
728
726
675
451
245
161
186
305
334
447
570
643
671
665
666
643
614
553
414
694
592
371
225
252
191
165
359
532
582
591
624
642
691
636
565
504
517
587
572
547
510
460
469
493
672
642
445
310
537
843
923
645
359
21
0
0
191
401
520
485
578
643
580
652
606
478
459
432
539
615
679
771
756
687
548
367
405
420
586
559
435
362
355
501
599
575
518
502
459
341
300
377
508
665
669
632
592
588
555
574
533
580
541
450
374
387
414
397
333
348
461
492
537
568
559
557
550
553
552
554
547
516
540
604
679
620
542
465
413
404
434
447
445
452
480
494
462
439
477
489
439
489
541
541
565
584
585
553
516
501
512
504
526
544
524
495
473
506
469
472
442
502
472
442
474
530
518
510
538
540
513
459
507
539
507
465
435
481
513
510
516
519
545
786
768
612
529
449
385
340
285
321
382
411
447
482
503
491
523
574
613
630
675
692
616
546
470
396
355
330
403
495
502
491
528
529
512
494
533
637
651
593
538
481
436
415
392
320
460
536
539
509
508
497
496
531
542
518
510
499
493
485
493
523
537
532
529
602
591
570
544
516
488
485
478
398
459
484
470
475
468
466
472
482
476
476
475
503
535
545
551
556
557
559
572
577
556
538
559
540
495
441
403
359
420
415
420
482
528
579
575
529
504
505
515
512
503
483
481
487
496
496
486
478
504
524
507
551
689
760
668
590
490
394
334
304
260
277
370
435
523
582
561
567
553
533
530
546
538
533
525
527
519
526
523
526
529
540
595
582
555
530
505
488
472
448
449
416
454
489
494
478
469
469
461
483
506
503
496
507
527
540
539
546
556
581
573
591
568
534
491
462
432
404
389
404
425
446
475
481
496
526
563
593
595
579
556
540
518
493
479
474
469
428
465
525
566
595
601
574
535
464
427
436
435
428
426
434
442
490
525
525
511
514
574
572
557
526
509
497
502
497
499
502
504
498
507
520
522
509
504
495
485
472
478
494
503
509
504
518
546
592
611
586
555
524
483
456
429
391
395
424
423
486
516
520
507
496
499
500
508
500
525
549
563
555
542
536
525
513
502
498
483
469
485
495
505
524
524
540
546
555
564
594
592
554
529
479
435
399
369
347
337
339
358
426
526
557
547
551
565
572
569
572
566
565
563
554
531
529
525
529
537
539
543
505
453
430
439
455
452
463
463
461
491
504
531
536
556
588
569
544
531
519
491
458
439
426
421
409
430
504
543
550
550
544
527
521
523
525
531
539
543
543
529
531
523
511
498
482
478
470
473
475
495
567
545
528
554
554
531
515
484
459
442
440
444
447
444
457
459
464
472
471
497
499
500
501
505
515
530
539
540
543
541
538
535
533
528
524
516
518
520
522
524
515
513
514
510
504
501
495
496
492
483
491
508
509
503
496
493
491
502
508
513
526
545
547
527
515
507
494
470
445
423
423
456
460
477
507
517
524
526
525
525
527
524
519
515
514
546
593
621
625
604
555
509
464
429
404
378
347
398
449
476
480
478
489
498
514
515
527
539
542
540
536
539
547
555
562
551
556
549
535
512
499
487
461
455
460
469
471
451
460
472
486
483
471
470
492
517
524
525
529
540
540
543
536
538
530
525
520
512
501
498
489
491
497
522
537
537
529
553
547
522
503
489
476
462
458
464
470
468
487
515
538
534
535
537
513
505
504
482
475
477
490
462
427
404
394
428
453
507
536
555
556
561
558
543
527
508
495
505
509
506
513
519
523
518
501
503
500
502
503
516
520
524
533
536
530
525
525
522
519
513
506
508
506
503
500
497
494
494
497
498
494
500
502
498
500
499
500
501
502
505
501
502
504
503
504
505
502
497
497
500
503
500
504
504
503
503
508
504
507
536
566
585
576
559
560
540
511
487
463
437
419
417
417
415
406
400
436
488
519
537
555
548
547
553
564
569
542
497
473
489
492
478
458
457
448
446
443
475
504
521
539
560
566
558
555
545
533
527
524
517
508
497
500
499
497
497
492
494
514
520
516
517
515
512
498
492
505
509
506
507
511
511
515
505
506
507
507
506
506
498
505
505
504
502
496
501
508
515
520
519
530
546
550
542
531
515
505
496
483
476
471
471
476
482
476
481
502
518
538
541
524
515
487
472
448
425
400
379
373
399
459
515
542
568
545
546
560
569
561
544
525
504
501
497
502
500
507
518
519
527
532
542
559
580
591
585
569
545
519
498
471
451
432
425
426
427
431
453
465
475
500
509
513
513
516
522
530
536
539
533
534
531
512
501
496
503
503
508
511
524
540
536
543
541
531
523
516
504
491
471
462
488
504
519
511
542
558
586
578
527
478
443
407
406
396
330
292
327
437
490
526
549
547
553
568
574
571
568
555
579
574
590
614
617
588
547
493
448
432
413
377
395
403
411
462
545
680
702
693
717
786
736
664
569
418
249
67
31
112
165
168
231
374
507
614
630
639
632
619
606
598
630
631
591
578
595
570
553
567
576
591
615
632
620
576
529
518
515
519
521
491
456
395
367
427
508
497
422
364
276
307
411
463
485
526
593
661
706
664
567
485
451
431
412
407
408
409
402
406
432
472
513
622
669
654
671
724
752
709
625
521
457
403
356
307
271
253
382
556
614
570
489
420
467
497
489
420
513
549
543
579
598
551
508
482
493
481
476
496
547
610
616
609
569
521
492
472
490
492
475
471
438
410
362
309
315
372
379
394
446
483
522
652
817
891
907
826
655
498
447
460
488
400
348
432
599
683
673
548
416
295
292
273
240
174
119
128
231
364
512
575
653
726
742
711
718
749
761
747
723
706
657
603
527
453
492
584
511
428
348
257
262
275
297
290
355
487
560
615
600
577
637
712
722
700
731
726
672
612
496
407
316
217
167
178
247
315
337
396
433
444
443
460
540
560
519
567
616
680
669
588
558
614
675
705
711
666
526
483
537
528
480
378
328
332
301
291
293
304
316
500
774
838
831
753
677
568
505
489
451
444
372
280
242
275
364
520
547
624
600
542
493
406
452
504
585
749
851
899
784
631
566
503
451
376
189
150
90
184
204
177
252
403
542
702
765
808
810
789
707
648
629
553
497
463
496
492
642
650
518
400
299
265
167
285
404
494
490
471
462
466
527
637
806
820
731
675
610
544
509
447
399
345
354
298
249
238
275
289
407
568
674
728
752
781
806
775
679
564
496
417
489
443
348
249
184
252
313
340
480
680
771
748
748
762
763
723
672
688
652
532
334
132
0
0
0
0
178
437
643
728
795
845
886
867
841
808
752
734
765
838
780
619
391
287
227
176
174
325
515
672
715
783
730
628
524
423
247
97
8
0
152
335
433
419
481
543
589
700
787
856
870
860
839
626
531
426
333
259
327
367
570
673
777
659
530
480
451
408
310
232
165
181
342
502
623
705
803
983
1022
837
606
401
234
163
334
431
433
377
422
402
409
467
433
469
409
426
410
369
368
474
542
784
888
839
733
707
683
536
388
210
231
325
332
409
468
489
463
480
532
555
474
505
472
568
788
940
864
941
925
783
531
383
267
194
149
55
107
364
478
313
133
190
261
295
462
489
916
1022
1022
1022
987
658
310
62
0
0
0
108
279
449
511
597
707
869
950
897
786
738
656
649
648
599
566
505
413
238
255
129
49
300
478
575
685
865
1022
1022
939
708
352
50
0
31
0
0
0
249
493
680
595
677
668
690
702
676
688
762
838
840
1003
1022
907
823
606
184
0
0
0
0
245
414
510
578
698
896
811
703
810
686
711
440
302
99
148
491
555
454
505
663
573
609
423
238
281
367
415
323
348
501
536
545
643
727
643
519
396
371
553
664
600
620
696
651
628
575
467
380
664
1022
1022
879
624
468
81
6
0
0
281
432
671
528
390
204
180
217
298
337
568
703
720
640
796
983
1022
869
456
369
244
261
360
436
430
456
451
423
303
290
431
548
779
797
840
881
842
738
571
480
409
466
469
361
394
327
652
806
614
647
722
376
0
0
0
0
32
180
340
471
597
649
691
734
943
919
888
832
880
787
600
487
510
430
303
482
1011
1022
913
672
191
0
0
0
0
198
225
312
258
461
772
696
780
762
744
831
1000
1022
1022
787
743
947
564
21
0
0
0
0
38
179
290
274
196
233
936
1022
1022
1022
941
840
734
391
3
0
0
0
0
110
252
271
421
601
1020
1022
1022
1022
875
678
466
426
445
319
397
457
645
1022
1022
1022
1021
148
0
0
0
0
0
49
279
571
747
1022
1022
801
619
400
249
227
290
432
810
1022
1022
1022
1022
890
448
91
0
61
398
339
691
595
227
213
195
249
270
412
577
620
685
526
294
496
985
1022
749
708
796
448
537
478
153
95
27
0
0
0
420
636
808
885
944
1022
1021
852
625
468
361
350
389
444
440
527
956
1022
1022
1022
552
0
0
0
0
0
196
467
703
794
752
833
840
893
1020
1022
965
693
399
139
23
62
187
310
465
505
797
816
612
457
313
267
417
488
579
650
504
512
475
478
494
527
546
552
566
560
555
550
544
533
535
606
605
579
530
515
458
399
365
377
395
458
435
479
509
506
477
534
566
564
568
552
521
492
496
495
567
592
559
491
439
407
368
416
470
512
488
593
651
604
545
519
429
401
405
448
489
581
599
549
507
494
587
519
408
415
364
319
366
533
604
647
625
582
552
526
503
471
468
515
534
578
577
561
531
522
497
465
396
439
459
473
500
496
516
532
527
518
508
511
509
508
486
496
519
516
521
548
544
523
518
503
492
470
472
477
471
448
470
485
497
502
504
502
521
531
547
535
522
503
492
485
485
486
500
529
540
537
528
519
496
483
481
483
489
495
495
496
497
504
505
506
506
504
500
507
508
508
510
511
506
511
537
541
527
508
531
527
501
476
451
527
573
561
497
505
504
476
422
374
420
472
494
486
476
479
486
499
537
561
568
561
556
546
526
506
506
494
463
459
469
473
483
495
508
524
529
604
597
558
521
487
462
453
438
422
415
502
540
542
539
539
539
530
527
507
500
501
492
480
469
462
477
472
482
470
475
512
542
535
526
526
527
519
528
547
570
593
589
551
516
485
481
463
452
436
399
400
414
442
463
472
483
509
522
520
529
534
529
539
546
544
539
536
531
550
553
570
583
556
519
476
448
439
423
445
443
468
469
474
486
480
473
499
488
507
558
563
553
544
527
513
499
500
496
500
500
503
515
522
507
510
529
560
555
533
502
463
446
448
518
539
528
519
520
519
503
467
436
437
391
412
472
530
540
537
527
533
542
534
546
563
581
596
616
598
552
512
473
448
422
404
387
375
363
384
443
488
507
534
537
532
508
487
500
529
543
551
555
556
556
555
548
547
545
540
532
518
504
484
473
467
461
460
472
480
491
508
523
531
539
563
561
543
554
530
516
490
492
474
441
382
376
421
453
470
471
479
507
540
555
548
547
536
527
524
541
547
553
545
531
543
572
560
534
506
482
463
447
436
425
430
429
422
445
480
520
547
557
596
645
648
657
617
575
535
515
470
402
336
290
328
372
405
421
480
510
544
561
567
549
530
531
543
565
568
561
564
577
565
553
529
505
479
470
456
452
439
430
474
500
505
504
507
506
501
506
510
526
564
564
557
540
529
517
494
472
456
440
416
447
477
483
490
491
496
508
524
538
547
546
567
582
595
579
548
535
516
497
472
468
461
448
449
452
437
445
497
551
579
576
543
511
480
433
423
419
464
493
479
482
519
547
544
528
521
515
509
467
467
472
471
478
495
510
525
541
548
553
565
567
562
566
568
579
577
568
545
506
481
466
434
403
379
370
383
451
496
506
514
525
527
531
556
569
574
569
589
603
577
551
553
531
505
462
435
425
407
403
392
396
403
423
439
478
503
503
508
502
524
532
540
547
550
560
580
588
592
575
559
548
555
546
523
497
488
480
470
455
455
441
427
436
444
461
482
478
489
527
535
547
549
540
531
520
520
526
520
512
516
525
530
540
563
552
541
545
538
552
570
543
518
463
459
457
449
452
442
415
412
441
464
448
404
355
343
383
452
494
540
582
588
596
603
593
575
570
577
557
528
509
504
501
492
485
488
495
507
537
549
560
562
558
545
544
536
530
521
493
458
416
392
391
392
382
409
423
481
519
545
548
544
562
560
546
545
555
557
543
522
507
497
486
480
486
488
495
492
491
504
515
527
529
521
512
508
507
498
494
495
492
505
512
518
518
510
512
508
511
501
498
497
497
496
503
512
529
534
545
537
540
540
533
522
520
516
516
492
467
453
440
428
416
399
412
432
432
466
515
545
549
558
537
516
519
530
533
543
548
543
530
513
487
479
458
455
436
417
427
482
515
550
575
574
574
575
586
594
559
524
509
503
489
461
425
397
393
418
442
452
476
492
504
541
605
632
616
595
599
618
619
586
552
505
461
420
376
340
315
283
307
363
431
512
577
595
601
615
669
687
648
624
610
645
625
583
516
422
355
309
288
276
295
273
309
419
523
612
678
714
714
704
658
599
508
431
409
395
362
338
381
467
554
574
547
535
538
500
444
378
348
383
470
577
596
627
630
690
689
628
558
492
461
445
448
406
359
318
345
449
555
628
667
698
716
703
732
722
655
561
481
396
301
243
213
207
253
309
296
426
467
502
537
587
662
678
623
552
612
612
597
578
583
651
636
568
492
412
410
488
516
501
426
373
377
340
266
194
220
416
663
819
799
700
608
571
544
491
492
473
436
449
480
432
520
520
508
492
462
397
335
299
337
408
479
562
661
786
799
747
684
670
675
647
596
506
423
364
361
419
450
394
387
455
511
524
465
382
313
347
435
514
501
547
573
567
565
572
583
607
585
543
527
548
627
636
587
559
583
574
522
416
327
314
249
228
246
304
410
518
674
680
676
652
601
552
478
500
558
560
539
555
556
513
454
369
315
295
260
285
401
512
629
719
747
734
739
685
629
541
462
439
438
463
487
502
489
485
523
517
613
628
568
521
486
450
400
350
313
273
334
438
467
519
516
490
424
337
287
400
455
531
618
673
723
749
739
691
629
581
626
616
610
627
623
607
508
433
413
395
311
244
139
63
63
172
299
478
772
946
999
959
882
771
637
446
307
281
239
198
135
135
305
441
563
688
770
748
739
803
801
726
554
414
257
216
279
297
354
440
572
660
703
743
758
756
747
741
577
399
189
160
182
192
141
207
439
623
737
719
616
550
512
524
410
422
402
526
627
675
648
639
668
633
609
503
387
335
269
227
175
284
413
559
696
723
688
685
624
510
375
355
446
451
465
489
554
612
578
502
505
492
518
584
568
658
794
802
624
461
338
238
194
320
512
634
614
554
496
431
407
565
692
689
566
496
456
369
335
310
301
314
286
256
281
390
532
596
635
629
667
686
668
730
800
814
796
779
608
573
425
257
257
189
107
273
476
704
796
778
671
508
337
240
132
42
41
267
426
413
432
541
624
713
790
816
863
907
916
910
908
790
587
537
492
543
364
143
48
3
0
0
18
297
560
663
696
600
632
598
760
812
726
600
524
464
386
359
349
361
439
561
613
693
744
852
861
800
755
696
649
518
296
85
0
0
162
309
379
425
480
624
667
662
689
586
642
749
788
771
744
838
920
944
641
416
177
171
135
0
0
0
0
174
255
355
379
490
574
750
1004
1014
916
740
632
661
572
423
510
548
579
536
678
713
646
551
432
302
182
51
0
71
381
587
827
884
886
1011
1022
1022
986
790
473
58
0
0
0
0
85
430
644
656
586
628
762
837
807
889
814
801
573
474
524
798
903
736
494
380
200
0
0
0
111
323
399
446
584
724
847
754
614
529
538
665
722
711
636
543
357
264
366
509
572
544
657
673
959
936
758
543
368
223
31
0
0
333
484
626
813
1004
771
740
467
362
323
298
360
295
222
220
287
337
408
672
919
1019
1022
993
989
1022
1021
671
166
0
0
0
0
0
462
948
975
903
745
574
386
428
255
543
608
632
573
319
204
186
470
541
745
762
598
450
572
605
680
654
567
502
602
690
548
408
243
225
336
478
824
966
710
496
307
102
74
202
444
716
753
615
702
596
446
564
716
813
711
457
587
1022
1022
1022
530
171
0
0
0
0
0
71
192
266
394
680
807
759
571
970
1022
1022
1022
1022
964
915
772
657
528
438
321
255
408
430
384
370
441
631
608
665
1022
1022
1022
1022
1022
830
281
0
0
0
0
0
0
138
731
1022
1022
1022
1022
910
947
889
563
121
0
0
0
0
771
1022
1022
1022
837
636
350
226
330
357
514
738
856
1022
1021
658
437
9
0
0
0
0
388
646
618
789
1022
1022
1022
1020
707
273
195
78
146
313
18
0
196
344
874
1022
1022
1022
884
1022
582
0
0
0
0
0
0
0
472
947
982
1019
862
799
675
589
787
850
891
1022
1022
1022
390
0
0
0
0
0
148
376
524
706
1022
1022
1022
884
683
574
396
361
777
995
1021
974
870
505
155
80
292
212
0
0
0
0
0
308
633
862
878
853
752
721
699
800
732
634
571
493
391
409
814
1022
1022
1022
924
687
208
0
0
0
0
0
435
719
925
980
759
755
962
831
454
71
0
0
0
140
432
770
932
809
702
610
622
490
533
638
665
652
557
527
484
472
473
511
502
519
525
615
664
590
508
408
361
334
377
533
512
468
418
373
409
540
585
568
556
568
582
595
560
525
464
446
459
452
446
489
495
504
534
559
568
572
536
503
492
504
500
507
495
483
493
531
488
493
477
448
436
461
440
443
528
552
559
552
532
490
463
502
563
671
668
604
620
598
432
233
203
263
338
322
390
491
566
581
585
590
607
719
700
623
530
494
473
427
393
431
450
484
543
548
522
504
485
480
503
494
494
516
542
538
527
503
498
502
508
514
492
492
484
495
503
511
519
518
513
511
510
508
506
503
500
502
494
502
510
528
569
598
598
558
526
463
416
407
371
406
430
437
454
476
503
535
591
583
556
522
500
488
471
390
468
526
537
533
540
532
526
521
518
510
510
507
507
513
517
512
513
508
502
504
502
499
505
504
502
499
503
503
505
507
507
501
504
505
505
578
655
623
568
504
446
403
380
325
303
369
444
513
544
568
578
591
591
560
552
535
505
476
475
473
463
465
519
566
607
594
569
541
515
482
437
354
423
459
456
473
477
483
491
515
526
515
502
515
534
533
536
531
530
536
542
543
536
528
519
506
500
491
484
478
469
474
477
521
529
523
509
494
483
482
489
477
433
487
520
528
531
537
542
534
534
531
522
499
470
439
467
501
509
516
583
600
599
577
561
524
470
438
430
396
364
373
394
419
449
480
501
509
494
523
566
565
558
561
554
544
535
534
532
526
521
514
515
514
512
511
505
499
519
527
516
512
526
515
503
486
458
451
465
468
471
486
496
513
522
537
561
561
551
540
519
495
476
462
454
452
444
489
529
535
524
522
531
526
508
488
479
502
527
520
519
509
506
512
503
482
463
401
447
496
517
505
506
517
513
524
518
510
511
528
533
525
519
519
515
515
517
509
510
508
514
530
524
514
497
492
487
486
480
487
487
487
493
506
518
518
516
512
509
510
511
513
511
513
510
551
557
561
562
544
520
486
462
430
410
371
367
413
459
510
529
538
543
556
554
564
552
529
549
577
558
539
515
497
478
478
485
444
412
379
360
382
433
478
516
518
547
568
568
556
554
559
562
549
537
526
521
513
503
507
510
513
511
508
503
510
513
520
522
558
564
563
557
529
490
456
412
385
413
425
414
423
443
480
504
511
528
539
537
566
591
594
583
563
543
537
536
523
500
477
472
447
439
459
463
456
445
449
453
464
477
496
526
544
547
536
544
579
590
583
566
540
519
496
467
439
405
417
427
446
459
478
488
516
550
564
561
548
541
526
511
506
514
514
524
529
523
514
504
499
487
480
479
502
540
554
545
532
530
566
573
573
550
517
476
433
416
405
380
367
376
361
376
455
526
577
617
620
600
581
545
524
517
523
510
500
499
510
512
490
472
472
483
487
480
479
486
509
546
553
539
534
527
516
496
475
467
470
483
479
450
451
496
526
542
554
550
550
549
554
552
549
552
544
525
515
491
459
445
449
448
447
436
442
451
474
499
523
545
552
557
556
561
566
560
554
544
562
574
550
523
484
459
457
453
443
426
411
388
389
418
450
478
516
556
591
612
604
583
555
513
480
460
424
422
459
480
509
550
537
519
502
490
461
455
452
450
462
502
537
545
557
553
554
549
539
531
528
530
531
528
522
519
528
514
505
490
481
475
472
476
474
500
512
508
513
521
529
532
523
511
510
512
503
489
487
483
484
491
492
506
520
513
502
490
480
472
470
475
489
518
550
561
572
586
591
600
593
565
531
487
445
411
393
352
319
334
367
422
474
483
500
524
566
590
620
639
621
616
600
568
523
489
444
413
396
376
368
389
426
469
507
531
545
574
583
567
553
545
543
542
530
527
524
521
515
506
503
510
511
510
504
507
504
502
500
502
501
502
502
502
500
502
508
506
505
507
503
502
500
499
497
498
502
494
485
491
494
497
506
519
526
527
518
511
507
514
510
531
551
551
543
539
524
504
484
468
455
444
440
438
427
426
428
442
468
500
526
525
531
563
583
599
591
555
521
492
481
481
469
458
446
473
497
519
542
550
562
585
584
552
545
528
520
531
533
506
461
435
447
433
413
399
383
399
438
496
554
582
579
568
556
544
535
524
517
511
476
477
482
475
465
454
478
496
505
534
529
511
507
516
527
576
638
712
769
739
673
588
500
436
361
278
223
259
327
380
424
454
480
484
491
522
578
601
606
612
623
571
584
518
447
364
327
328
411
451
490
560
615
627
601
549
517
476
396
415
477
518
537
518
474
425
452
547
619
651
711
701
648
593
532
486
354
309
255
302
338
366
387
423
472
530
559
589
607
620
619
635
655
634
581
554
556
545
515
496
477
472
443
419
413
425
455
474
534
615
620
620
618
628
673
712
720
571
419
291
190
147
122
79
167
179
230
424
549
687
758
827
815
822
787
703
582
460
333
284
184
261
351
384
444
520
583
598
622
664
701
694
695
719
781
785
708
655
617
593
499
342
211
122
70
71
127
172
241
382
532
564
630
706
835
872
865
834
787
760
742
715
590
404
238
112
38
0
0
96
171
347
597
783
871
878
849
817
712
660
600
549
492
406
302
275
327
391
406
408
346
307
356
435
499
573
725
805
813
723
624
527
445
432
409
486
549
554
587
579
532
502
545
615
649
712
806
824
748
591
407
262
67
0
0
0
46
200
429
725
851
799
815
806
700
576
479
415
439
462
467
444
428
476
535
634
741
762
746
711
599
506
412
339
270
194
246
309
384
433
524
559
651
751
805
795
763
738
702
629
512
396
325
283
263
248
228
344
614
738
750
746
759
630
398
188
0
69
190
335
495
536
584
620
586
567
576
621
583
511
519
535
540
548
565
581
616
656
624
541
480
438
457
485
373
343
326
301
328
387
683
835
903
901
843
715
621
553
530
404
171
48
0
0
112
204
312
466
626
676
654
675
709
695
780
839
855
814
781
686
567
490
395
287
153
71
71
131
383
616
831
931
936
826
709
668
576
401
165
0
0
44
134
398
718
929
832
674
560
476
347
286
345
436
496
645
697
608
589
616
617
510
423
358
428
432
348
399
452
553
687
795
711
608
583
479
353
301
346
502
805
985
966
883
725
514
279
0
0
0
0
60
247
455
678
850
846
849
757
706
587
568
692
739
652
599
551
499
317
217
226
291
236
340
518
522
546
641
645
599
545
423
427
495
461
452
461
452
460
487
527
531
560
585
596
631
718
782
748
855
988
1022
888
697
403
67
0
0
0
0
0
123
386
674
768
789
800
762
769
770
694
696
775
761
704
602
771
896
790
718
634
568
255
27
31
1
0
0
172
384
491
465
350
452
603
671
792
884
857
880
931
900
729
594
560
509
486
437
428
425
331
184
124
127
99
245
344
546
740
880
916
870
1002
1022
945
723
411
195
0
0
0
0
196
351
732
888
931
897
771
540
361
296
284
338
548
686
722
648
548
522
541
491
412
523
583
624
611
579
877
888
791
608
392
223
67
41
0
0
268
479
611
684
822
1022
1022
1021
761
504
265
66
147
208
273
287
265
280
339
784
1022
1022
1022
1022
1022
540
78
0
0
103
208
224
287
284
237
265
173
214
463
639
656
613
607
988
1022
1022
913
570
369
304
255
174
329
588
577
688
1022
1022
1022
797
339
1
0
0
0
0
0
193
504
774
916
952
1022
1022
1022
1022
1022
922
705
192
0
0
221
407
379
352
117
95
49
0
205
139
341
974
1022
1022
1022
1022
799
587
264
0
0
0
0
48
451
1022
1022
1022
931
525
382
7
0
0
254
358
349
309
265
443
968
1022
985
852
680
551
417
285
478
543
608
654
573
541
489
578
456
361
349
219
273
434
824
1022
970
849
839
573
283
4
0
0
411
1022
1022
1022
678
81
0
0
0
0
0
147
508
605
564
495
597
495
639
900
1022
1022
1022
1021
745
438
159
10
0
261
504
536
389
516
641
672
597
484
436
422
393
406
610
926
967
1022
1022
1022
915
0
0
0
0
0
0
235
626
745
784
849
802
707
752
654
670
1022
982
803
1021
861
536
235
51
193
227
265
459
580
741
859
713
958
1011
512
284
16
0
0
0
0
286
686
726
775
1022
1022
1022
1022
678
315
134
194
220
418
479
563
751
758
833
879
544
297
0
0
0
0
238
515
681
789
1005
1022
922
710
499
587
477
349
326
233
69
82
318
509
505
513
602
732
759
668
587
582
560
516
524
496
521
559
540
560
558
519
499
489
484
500
511
508
511
505
508
574
738
671
479
402
347
323
303
310
477
636
641
598
526
474
363
321
426
531
578
588
601
576
541
495
465
418
351
343
398
557
605
568
576
614
593
560
505
519
487
459
436
451
476
494
507
515
518
520
518
515
513
514
515
510
509
501
517
592
647
602
507
512
526
476
556
455
401
340
310
302
360
424
498
544
553
555
547
532
538
555
569
577
568
551
531
515
500
486
480
499
508
524
532
512
516
500
501
505
504
472
470
482
487
479
479
488
491
493
505
507
512
514
509
508
515
514
513
515
512
522
524
520
517
507
496
483
475
470
493
520
522
512
530
518
500
494
476
499
510
514
498
481
473
481
498
496
495
505
516
519
519
518
519
515
509
511
510
511
510
512
513
511
511
500
497
496
491
504
504
499
499
605
655
613
558
498
441
393
392
298
350
459
525
540
534
553
560
541
530
523
494
493
502
496
498
509
519
515
497
550
561
547
553
546
510
476
437
409
376
442
474
497
505
516
531
531
533
536
528
519
518
517
520
519
509
505
508
518
516
516
510
508
504
499
503
495
478
497
504
512
505
510
508
497
504
510
510
508
506
500
491
484
477
481
485
496
509
523
526
525
522
535
553
546
533
520
510
517
519
514
496
472
446
440
442
450
449
459
478
501
510
535
521
493
504
587
626
619
579
552
511
465
424
407
343
358
441
517
558
573
564
546
541
571
545
504
476
463
460
470
475
478
483
489
494
505
531
540
540
540
532
530
531
535
533
522
515
501
491
487
487
481
482
494
521
530
526
524
515
511
506
508
490
460
417
471
518
526
525
518
527
548
545
527
505
487
468
463
452
426
432
447
477
494
524
526
516
500
499
499
499
516
555
560
555
554
564
562
549
542
529
505
492
479
464
435
422
388
443
473
479
483
504
517
517
524
528
530
522
527
529
537
535
529
526
522
527
524
523
516
512
508
507
501
501
499
490
501
497
497
499
506
496
486
474
472
493
519
546
555
564
559
541
518
491
472
447
420
417
484
545
569
549
527
503
469
469
465
450
445
421
405
463
505
534
542
532
535
538
538
539
538
541
540
543
555
544
529
519
496
486
486
478
481
505
514
516
492
482
478
487
499
504
490
481
490
496
504
520
526
532
529
529
540
553
548
540
528
517
501
485
470
456
451
438
464
482
496
518
523
514
524
511
479
468
460
484
501
532
562
592
602
597
584
562
522
487
463
446
431
409
382
397
423
456
473
483
483
505
497
495
517
519
523
550
577
591
587
576
562
553
532
511
496
481
463
442
437
446
470
499
518
524
531
544
540
553
545
536
522
515
508
491
478
500
535
553
536
519
505
499
504
515
519
497
472
432
403
373
376
444
496
543
554
556
543
526
516
460
481
477
463
470
484
513
544
574
591
583
566
541
504
470
459
450
453
423
496
560
575
571
565
563
551
534
506
475
447
434
441
441
428
428
443
502
530
548
551
553
541
524
515
510
510
514
527
538
537
538
540
536
524
516
506
500
497
495
489
491
492
489
489
510
536
550
565
576
577
572
543
501
450
411
433
445
423
376
351
356
364
406
447
476
459
462
501
546
561
573
597
621
641
629
597
572
566
551
526
513
487
469
484
496
484
475
462
477
492
502
492
480
477
485
489
505
516
511
520
514
520
522
521
515
504
502
505
510
511
512
506
505
503
500
499
501
497
497
498
499
504
506
508
508
516
539
545
551
545
560
574
584
568
529
491
460
431
406
390
377
375
415
437
472
486
478
488
492
498
513
519
527
540
549
572
610
618
618
608
577
548
517
484
459
445
433
419
398
384
396
433
469
493
509
530
545
553
564
575
564
549
537
531
526
528
540
560
563
551
537
519
508
503
487
474
462
447
441
435
439
444
440
440
452
478
484
505
529
544
551
541
559
591
598
589
575
573
561
543
518
494
519
558
547
528
508
495
471
470
476
458
432
416
390
333
285
242
229
300
389
482
548
594
651
653
654
673
675
663
633
600
576
543
537
525
512
508
490
474
485
501
504
522
532
530
543
572
587
572
556
523
513
534
539
509
485
473
421
376
345
321
355
407
315
237
193
217
284
436
588
613
620
649
711
718
676
629
600
572
604
648
659
639
620
595
553
536
511
474
445
418
385
366
366
433
532
555
572
584
578
545
501
479
432
374
323
308
279
311
298
359
486
636
741
778
736
685
635
577
558
598
586
545
520
470
447
405
391
398
472
525
538
488
359
266
233
240
275
374
547
739
824
822
822
782
715
639
569
492
439
423
417
391
348
315
275
256
304
377
503
629
718
787
747
683
647
604
561
504
414
315
289
292
339
401
468
536
616
671
691
659
609
548
523
576
533
508
440
341
302
291
317
335
420
572
745
754
638
507
377
319
318
309
353
437
591
718
745
723
630
526
466
451
440
424
439
546
666
702
692
680
652
591
512
413
332
281
244
277
339
363
440
522
581
627
677
675
632
630
643
633
671
678
665
637
563
451
215
7
0
28
158
262
281
448
598
712
752
715
689
666
621
606
577
539
438
531
745
830
846
807
760
755
658
535
368
260
165
36
0
0
11
171
391
496
558
619
701
738
708
672
655
572
522
573
607
564
552
439
347
387
410
454
423
491
579
536
530
653
764
770
763
745
645
522
389
318
243
217
305
425
524
523
539
568
585
527
440
428
391
362
404
461
516
516
481
476
496
444
400
409
460
528
726
929
852
655
458
295
238
251
245
349
508
755
859
853
760
611
495
501
498
359
298
369
491
543
545
529
481
462
455
425
364
423
488
533
541
538
671
703
711
671
660
624
608
599
547
472
433
312
164
51
47
118
196
317
429
562
672
639
678
671
627
542
545
641
726
719
625
557
500
494
533
532
551
619
685
654
586
490
420
396
428
481
590
602
624
686
622
524
449
382
318
300
276
330
461
534
560
498
383
291
86
19
43
314
496
691
739
696
667
643
675
632
702
678
687
730
736
743
652
541
457
428
403
360
289
355
473
536
500
437
350
319
511
789
994
1022
815
589
416
259
75
67
104
126
193
199
233
343
543
577
604
641
647
657
694
690
703
747
769
764
812
771
653
542
413
398
335
386
369
355
520
550
584
638
463
260
249
130
259
410
555
515
481
415
467
459
579
631
645
629
561
448
351
354
430
546
574
590
616
633
597
606
567
594
637
665
700
757
811
713
468
302
122
41
234
308
274
326
347
448
504
743
800
810
925
1004
791
384
95
22
0
0
51
214
452
843
1022
1022
997
988
876
624
295
53
0
0
254
507
566
496
384
383
496
479
587
674
751
706
662
558
518
515
483
602
684
643
556
474
496
521
478
461
436
702
890
852
813
872
717
381
0
0
0
0
0
391
775
863
776
641
495
308
292
333
338
666
806
766
711
720
732
749
650
657
673
638
566
452
325
518
608
598
461
362
253
330
350
492
716
738
600
424
318
290
358
307
231
391
546
682
739
796
735
688
795
848
589
442
250
0
0
156
343
394
365
487
532
471
388
363
405
726
854
905
880
817
931
958
835
431
373
498
401
301
113
0
97
152
149
275
384
421
495
520
809
894
926
1022
1022
826
529
339
260
143
241
278
405
533
473
499
319
75
195
337
560
501
527
719
771
670
546
746
996
911
745
519
335
80
163
228
300
377
764
742
696
568
491
537
602
516
395
267
170
91
59
125
404
563
680
755
748
731
728
745
864
788
743
680
578
560
510
431
630
604
460
327
216
140
60
356
647
708
778
788
668
433
280
144
140
239
457
624
576
480
440
508
500
790
840
677
591
499
430
392
302
187
303
459
539
596
582
740
1010
849
632
404
176
179
86
111
176
158
437
756
1019
957
921
750
679
660
488
297
119
94
186
164
211
413
515
523
534
743
1008
1022
1022
1022
905
452
164
0
0
0
0
151
380
694
773
790
876
989
873
545
156
0
127
354
609
654
792
758
600
351
177
76
69
191
368
590
697
903
830
709
680
487
411
375
405
464
506
598
664
677
686
647
534
489
423
373
314
364
573
622
621
662
737
866
787
681
514
444
323
171
131
247
490
696
595
433
147
0
35
95
257
484
795
935
969
917
741
625
549
454
321
364
398
404
492
530
519
638
754
745
681
577
485
437
416
364
354
396
398
457
487
536
554
568
575
596
616
656
691
601
491
394
335
278
259
360
396
450
530
540
642
659
632
543
477
444
414
402
423
429
477
536
556
548
617
650
604
567
540
481
431
443
414
469
489
483
502
496
507
522
508
508
576
625
594
537
492
488
460
395
388
399
464
531
563
543
527
519
494
455
472
492
505
520
571
572
547
517
484
475
469
462
452
464
505
505
540
550
534
526
519
515
514
508
505
508
507
504
507
508
502
493
500
542
546
565
602
560
548
485
421
375
411
423
433
457
471
501
514
491
503
520
532
530
523
521
528
524
522
521
546
597
615
604
564
528
478
437
419
408
411
419
425
455
486
469
479
524
537
541
540
538
536
533
527
525
523
518
521
513
507
506
505
500
501
499
498
517
527
532
526
510
500
494
483
471
473
490
493
503
511
502
501
504
504
504
509
509
505
508
544
571
551
532
519
507
493
475
428
427
467
483
480
465
490
504
512
516
515
528
531
551
563
561
558
543
559
541
501
475
449
435
429
428
409
420
482
499
502
527
525
509
534
570
577
569
537
521
498
478
466
433
472
490
500
517
510
508
513
521
517
518
519
516
510
516
515
511
503
499
496
494
504
501
502
503
516
521
517
505
499
491
482
485
490
480
496
509
516
536
570
569
558
537
505
489
478
471
455
416
415
442
459
472
510
531
519
510
527
527
525
520
521
529
537
533
526
525
523
538
527
520
518
508
493
486
494
494
497
500
497
497
450
455
472
472
465
475
472
497
512
524
533
524
536
543
530
524
523
520
519
509
545
561
562
555
540
517
492
470
441
421
384
395
457
504
528
540
536
528
534
526
527
527
528
528
516
512
497
488
474
470
487
498
507
502
520
538
563
568
546
519
518
505
528
507
457
440
442
438
433
427
444
489
536
561
591
589
572
548
496
462
435
400
343
376
439
478
500
545
567
571
568
562
557
555
549
544
535
534
532
532
534
524
512
499
484
485
475
479
484
492
499
509
521
519
509
503
496
491
507
528
543
535
524
517
505
492
482
481
472
456
428
433
438
464
465
485
535
558
599
602
587
562
528
488
501
510
485
466
443
482
527
552
547
518
505
477
459
453
429
412
430
452
465
512
524
526
524
523
519
527
548
558
553
544
535
525
518
510
504
503
503
496
512
524
523
521
524
517
516
534
540
528
519
504
491
504
519
524
524
530
511
477
452
437
439
432
453
468
479
503
496
470
464
491
485
483
491
496
512
542
565
558
552
538
519
520
512
504
486
479
505
517
508
503
502
500
495
488
463
460
484
501
517
532
543
538
526
517
516
503
494
481
484
492
504
514
515
515
518
521
520
510
499
493
506
519
535
552
564
576
578
564
548
528
502
485
467
444
426
415
379
378
383
424
462
484
510
528
541
536
541
536
537
533
558
580
582
582
580
587
588
553
502
465
445
431
441
446
458
451
432
472
492
479
459
455
458
449
437
458
491
513
548
558
563
563
551
555
562
570
564
548
527
513
504
507
503
496
487
477
477
470
485
496
498
494
502
512
514
515
515
513
508
505
495
499
508
514
511
509
510
506
504
508
504
510
524
548
558
568
558
549
560
547
529
527
533
532
506
468
420
376
355
346
356
369
383
424
476
526
569
601
583
543
520
514
496
483
475
469
478
497
513
526
545
558
569
570
556
546
537
520
519
511
510
512
512
508
504
502
500
497
496
502
506
508
508
510
514
509
507
507
499
496
493
496
493
494
492
484
488
495
503
504
509
506
508
516
519
524
521
517
514
513
527
544
554
556
541
518
497
479
463
443
442
440
424
449
481
497
502
499
496
499
498
489
489
502
518
530
524
510
501
513
523
527
515
506
502
494
494
490
501
503
513
525
535
560
586
595
585
578
566
555
537
510
473
447
426
412
411
404
403
397
402
448
491
519
537
560
572
573
573
554
540
535
532
523
518
508
499
486
481
485
499
508
524
529
558
597
619
611
588
529
485
445
408
385
359
344
336
358
434
490
537
568
563
566
551
552
551
521
491
484
489
496
496
482
481
486
503
501
502
512
540
597
616
640
651
640
599
553
502
463
446
409
396
378
407
444
457
483
494
482
456
447
446
441
432
425
433
452
493
527
567
604
640
631
606
587
570
556
561
565
542
509
464
444
431
417
406
429
477
527
567
579
561
518
499
499
521
514
507
511
523
543
557
571
599
692
742
721
653
609
559
487
413
362
295
181
113
28
11
38
99
212
401
631
812
924
925
831
716
592
512
472
456
442
531
593
603
587
564
535
514
503
509
537
583
643
668
675
640
606
573
523
482
418
350
302
323
318
319
319
354
431
512
581
642
679
672
610
563
536
433
415
399
398
359
335
312
308
335
400
511
639
715
734
764
771
729
694
638
583
539
516
474
424
368
306
242
186
231
330
440
536
606
669
699
777
820
755
696
624
549
494
437
385
326
326
350
327
306
314
339
402
460
541
559
569
619
689
649
613
568
592
595
601
544
435
333
271
274
280
301
359
480
607
662
655
671
674
668
670
658
641
671
674
584
493
388
278
229
231
272
408
510
598
645
608
569
513
433
416
433
470
487
493
543
614
648
636
657
623
560
492
423
426
451
434
360
334
346
387
499
590
602
585
564
540
472
471
444
419
367
447
520
605
651
694
717
738
809
779
636
492
432
391
339
228
173
182
244
327
373
450
520
572
537
465
353
344
407
515
656
743
742
751
653
534
480
451
448
466
480
535
542
590
579
585
634
631
617
652
718
654
601
580
568
465
261
127
2
0
102
272
562
706
796
940
925
696
460
180
9
0
125
275
418
591
748
773
773
746
687
698
673
623
620
589
575
562
524
499
503
583
545
564
619
631
609
553
452
348
244
173
123
113
235
332
496
671
793
854
911
855
723
542
353
216
208
225
261
290
403
432
403
354
322
368
502
702
767
824
948
1007
1009
978
848
738
506
167
0
0
0
0
133
409
642
751
797
787
825
758
504
368
266
235
224
249
473
728
905
900
786
665
513
345
274
273
217
175
347
648
865
947
952
752
576
458
387
360
396
479
384
273
186
219
401
495
434
355
487
615
571
624
648
733
760
712
579
425
268
246
223
393
579
643
670
694
678
726
646
587
531
466
418
423
430
423
523
525
487
451
574
539
492
549
685
757
896
809
636
396
27
0
0
0
0
222
409
458
689
946
1022
1022
1022
1022
1022
860
581
289
15
0
0
0
125
331
420
611
764
819
806
878
840
746
669
614
584
635
732
752
703
656
537
362
140
20
0
18
63
269
416
517
678
840
848
800
742
625
499
422
505
566
569
615
629
639
580
505
376
387
703
868
777
669
483
320
219
161
148
84
99
199
303
398
550
746
746
743
694
668
622
559
434
294
409
481
536
530
532
594
906
904
710
539
466
427
336
320
177
172
166
260
299
380
596
775
921
1011
991
894
731
538
308
108
242
335
429
516
513
481
482
556
494
601
648
465
221
277
315
263
572
621
505
479
518
504
471
485
534
680
868
872
772
571
560
476
420
369
459
355
392
211
161
236
318
608
807
814
848
812
633
480
346
351
407
369
415
443
374
216
320
296
643
821
733
748
1011
913
651
486
345
398
638
680
580
398
341
399
270
0
0
54
279
333
247
285
556
766
878
876
963
929
842
743
608
480
421
417
318
199
291
600
662
595
545
804
1022
1022
721
283
0
0
0
0
372
546
732
737
1000
1022
856
602
609
467
154
0
93
177
150
143
131
374
711
1022
1022
1022
1022
766
518
248
106
8
0
0
0
287
684
1012
1022
1022
1022
1022
652
306
0
0
114
234
305
455
636
676
666
993
974
935
827
518
208
137
139
195
154
379
589
840
744
512
354
205
230
428
492
374
373
316
358
563
679
631
643
1022
1022
1022
643
266
138
3
0
446
949
1022
753
207
13
0
0
0
416
957
953
699
815
742
399
90
101
251
333
523
613
638
569
639
820
941
984
841
751
614
450
381
332
769
794
376
167
0
0
22
71
434
967
1003
807
500
212
268
390
401
576
533
527
563
732
1000
1022
1022
944
549
299
325
197
291
118
0
285
781
972
751
491
286
476
304
0
0
196
224
195
320
636
896
944
940
890
804
703
767
714
670
615
575
642
699
732
628
426
228
26
103
187
307
334
268
310
421
515
556
609
600
571
592
690
808
810
732
739
652
553
426
368
359
378
437
266
270
418
462
396
344
308
429
558
628
634
628
616
664
692
647
591
566
547
415
329
376
434
433
427
463
481
524
549
549
573
647
609
558
534
494
454
390
398
480
502
489
488
515
508
499
495
447
459
475
491
575
609
583
543
502
483
475
464
493
517
513
511
531
515
483
475
479
517
551
544
545
562
512
482
536
612
624
633
571
495
411
297
289
284
335
406
426
437
404
383
419
568
630
613
622
612
601
591
578
564
553
548
539
528
524
519
508
503
496
490
478
476
484
488
487
489
491
496
508
516
513
508
511
539
555
529
494
488
474
463
444
429
476
492
534
559
561
556
528
496
496
479
458
566
595
665
606
524
498
425
365
343
329
286
369
446
492
527
542
563
578
577
557
561
552
547
544
535
533
531
524
522
518
518
512
503
499
496
494
492
495
499
505
502
512
508
505
500
498
498
491
492
487
485
492
495
499
507
508
511
513
514
515
511
504
512
516
527
529
528
525
512
496
477
474
475
465
471
488
504
508
510
520
525
519
518
511
565
566
547
515
503
526
508
489
419
441
478
487
485
453
461
453
484
507
517
498
508
540
541
528
522
515
511
504
506
513
509
525
552
549
541
526
528
512
498
480
480
475
474
473
476
467
477
493
515
522
529
542
547
544
542
545
544
516
485
475
455
449
444
447
432
430
488
532
527
531
537
538
528
522
509
509
504
499
509
508
514
522
523
517
512
516
536
531
520
517
492
480
483
496
512
531
579
566
536
512
467
431
419
412
409
404
391
433
491
560
577
567
560
545
544
545
569
588
590
568
536
507
480
470
459
431
412
445
470
489
491
500
497
513
513
512
504
514
527
531
543
525
519
536
543
575
574
561
556
538
500
465
437
416
405
389
407
470
492
484
459
437
429
449
488
521
546
568
578
576
578
569
568
554
549
539
531
523
510
495
480
474
470
466
472
482
487
492
499
502
504
511
515
519
514
512
519
530
551
552
563
579
562
545
528
492
468
439
417
403
411
387
395
458
486
516
528
534
563
570
579
572
613
600
558
511
476
462
444
437
436
447
451
465
465
487
521
528
512
503
512
511
515
519
524
528
525
513
516
519
515
520
513
509
507
505
499
489
488
481
491
505
514
519
540
550
546
533
538
528
532
530
531
535
536
529
483
435
410
379
359
390
428
455
491
533
583
607
612
602
579
560
535
505
475
449
455
467
475
478
465
454
460
500
513
544
588
624
611
588
547
506
470
429
425
414
418
421
403
415
439
473
495
504
503
505
516
531
537
551
553
544
543
546
548
549
548
543
537
535
529
521
516
509
497
491
487
484
484
476
483
492
494
499
503
512
522
516
511
518
531
547
540
536
540
535
513
491
476
479
507
488
463
467
475
471
475
488
464
461
456
466
465
453
447
446
455
478
505
531
552
568
572
554
531
507
499
491
480
489
510
504
495
495
509
509
510
516
524
529
542
543
531
524
519
507
499
481
483
478
471
475
491
499
521
531
525
520
518
516
511
510
500
501
512
519
515
512
509
516
512
513
511
508
509
509
509
505
502
506
504
515
515
512
512
512
513
503
496
494
489
492
508
532
536
531
528
529
527
518
506
486
475
480
483
494
486
465
461
514
550
556
556
551
529
517
509
509
467
419
390
394
396
431
466
490
520
524
536
540
537
534
530
537
527
514
515
519
515
500
487
496
499
499
499
502
505
505
505
507
507
526
542
543
534
531
530
518
510
508
507
507
508
508
508
503
504
502
500
502
502
506
504
502
502
502
498
500
503
503
502
504
506
508
506
506
507
509
514
534
534
540
541
535
521
502
485
471
457
451
451
452
455
460
466
478
496
506
508
510
511
519
529
542
540
523
510
503
517
537
558
548
550
557
564
571
559
537
508
475
440
422
409
373
372
398
425
472
503
529
521
515
498
504
512
538
567
563
549
528
511
513
511
516
525
531
528
533
515
520
518
518
535
551
551
545
546
555
556
532
508
480
457
424
423
421
428
433
423
423
430
450
486
524
527
519
525
530
531
519
513
521
535
556
568
568
590
586
568
550
530
500
473
447
425
419
407
403
449
515
523
530
534
527
509
502
511
516
504
512
521
520
516
516
512
499
503
510
531
537
520
505
483
467
455
471
457
454
521
591
615
635
644
615
599
544
519
493
450
403
340
271
260
260
299
373
432
508
571
624
691
718
732
726
703
681
642
554
484
422
363
329
293
284
312
399
446
499
534
561
572
582
576
558
537
553
560
551
536
531
528
577
595
589
583
548
487
408
359
317
282
294
345
403
522
644
721
736
724
696
637
574
515
436
403
409
449
474
451
439
478
468
457
459
432
393
435
447
477
499
470
449
453
492
548
566
591
608
634
612
559
551
576
591
571
535
531
536
466
424
379
359
367
413
480
502
496
469
448
428
362
351
365
505
702
764
785
790
801
767
711
636
537
481
424
337
268
227
176
199
264
364
448
483
490
517
513
443
526
609
668
763
776
739
674
599
527
469
391
334
316
339
371
372
432
543
619
665
687
696
616
552
523
525
494
469
458
449
434
460
482
488
528
575
530
483
524
572
563
527
497
504
459
402
333
246
206
228
286
394
545
688
748
772
762
760
760
701
651
571
464
410
455
451
391
338
291
334
381
422
435
433
479
541
541
544
548
551
584
555
540
564
592
569
528
548
590
544
452
360
290
293
344
369
384
391
496
636
680
715
717
652
620
622
610
579
609
617
634
599
521
442
312
200
225
295
348
507
581
687
747
688
619
562
453
375
406
450
500
532
566
614
563
484
388
293
163
70
0
45
246
578
859
912
847
785
776
829
777
646
532
453
377
299
180
105
158
344
536
540
513
596
668
679
648
636
681
726
701
696
663
613
624
653
620
574
451
391
418
398
369
393
467
557
514
472
337
108
0
0
0
98
296
590
795
919
941
822
750
672
615
593
575
638
625
603
491
423
612
679
632
612
587
540
468
331
208
183
211
325
348
470
620
772
770
710
637
488
385
355
436
561
534
636
665
564
399
157
41
0
124
291
460
585
799
889
843
790
720
656
545
454
529
615
604
609
617
600
589
648
639
550
458
372
410
356
347
321
299
236
202
228
341
518
643
714
682
666
641
653
620
583
610
715
884
984
862
662
443
240
123
25
0
0
0
72
179
319
484
665
794
857
873
812
753
773
775
703
687
621
665
634
540
411
315
261
277
376
497
572
631
632
605
555
510
377
372
417
472
487
440
510
549
559
524
453
410
341
412
459
596
564
485
360
287
345
363
364
379
391
455
568
695
814
807
770
797
809
720
585
462
397
468
437
472
487
491
499
485
490
502
539
421
384
403
534
600
603
491
411
348
364
351
209
173
231
472
688
911
1022
1022
1022
876
620
381
86
0
0
0
0
70
342
522
609
675
758
784
764
695
659
643
676
629
584
525
482
575
565
561
559
593
599
659
737
918
968
828
646
482
185
0
0
0
0
133
399
891
986
990
959
773
564
339
188
112
404
636
517
367
476
615
555
403
280
440
467
262
51
56
238
464
587
669
694
584
639
662
682
778
732
719
623
493
444
430
473
504
415
455
459
504
545
583
615
602
595
570
608
733
851
1019
1022
1022
1022
782
163
0
0
0
0
0
0
0
110
362
422
611
954
1022
1022
1022
1022
1022
936
784
720
679
576
457
547
727
677
599
501
308
264
323
269
167
257
241
350
390
481
606
836
822
756
551
308
604
833
757
683
1022
1022
817
341
117
0
0
0
0
0
0
459
928
968
1022
1022
1022
983
553
631
523
343
253
210
352
660
652
520
508
668
747
632
357
516
1022
902
435
116
0
0
0
0
142
486
671
1022
1022
890
878
683
410
251
246
158
48
62
235
391
681
825
868
881
833
809
743
820
747
636
557
398
312
377
660
712
693
511
373
525
605
450
332
172
34
35
0
87
233
438
641
722
748
705
662
613
560
458
417
552
592
585
550
670
744
840
733
614
474
436
426
631
825
683
423
266
38
0
171
217
339
515
524
439
426
556
609
601
576
680
673
684
663
609
634
563
705
728
690
498
315
153
152
202
273
332
351
382
549
693
765
727
690
629
555
511
478
513
490
429
446
463
425
420
631
643
691
585
459
454
387
302
388
461
528
500
468
463
544
633
651
642
772
891
919
898
593
276
129
0
0
11
157
300
321
349
385
519
668
707
726
720
702
689
672
642
627
646
612
524
469
461
408
402
408
407
422
434
508
588
617
680
704
639
516
428
343
295
248
352
437
438
455
591
684
683
612
533
496
436
429
437
455
496
515
496
491
511
528
534
540
540
538
525
509
494
489
520
569
545
526
512
512
484
486
463
525
552
519
507
460
405
428
435
504
519
539
604
870
841
657
508
386
275
196
115
159
334
452
503
552
570
600
632
668
664
617
560
487
492
492
474
473
479
494
492
500
515
512
513
521
525
546
577
568
531
498
470
460
451
447
534
600
615
511
451
428
415
407
412
384
453
568
591
553
519
495
465
472
447
507
548
556
563
527
523
514
514
521
512
500
505
506
510
509
504
532
535
530
525
531
515
501
467
455
481
486
476
470
473
486
500
516
512
514
514
512
515
513
516
511
512
512
510
506
510
511
513
504
509
511
515
522
521
512
566
557
520
529
518
493
463
432
381
432
448
432
482
529
537
518
530
520
517
514
501
500
493
489
494
524
530
518
517
515
515
512
510
508
518
509
510
511
516
510
514
520
521
509
508
502
492
484
488
487
475
489
527
595
583
543
505
473
442
419
425
371
449
517
534
545
538
525
527
523
522
526
523
498
496
510
531
540
527
512
511
496
483
462
459
454
455
473
494
497
509
516
528
527
531
514
517
519
516
525
546
547
537
528
514
520
556
531
483
468
461
440
442
446
417
390
444
513
528
519
513
532
543
545
548
553
553
556
567
559
547
530
497
474
460
460
475
482
483
485
490
482
481
476
483
491
500
508
511
550
569
561
545
522
511
494
479
462
451
459
482
507
518
519
508
518
515
522
558
564
543
532
513
502
487
463
458
458
453
481
483
487
486
471
464
478
502
515
519
524
524
524
522
518
518
519
524
527
526
531
528
531
562
555
529
503
500
489
471
462
456
449
454
452
468
491
515
524
524
536
546
549
542
550
550
548
566
551
538
511
484
460
444
426
413
438
448
451
465
480
482
508
554
604
635
634
621
615
558
519
476
432
396
364
372
411
419
427
460
480
487
502
520
531
533
541
548
539
526
521
535
536
536
529
527
526
519
520
516
520
518
522
518
515
516
506
523
523
518
506
496
473
462
467
474
470
477
471
481
539
558
571
582
555
527
507
495
484
470
455
430
430
435
430
445
476
493
518
541
568
583
586
561
537
530
519
513
530
558
581
631
628
600
572
529
486
437
370
295
271
238
250
316
376
472
504
519
544
575
578
582
568
564
584
614
609
592
572
552
535
524
513
503
488
485
474
473
487
507
512
513
513
520
516
516
513
511
517
517
524
520
512
518
524
529
519
501
487
476
472
466
467
465
461
460
460
480
502
512
523
527
534
542
596
609
583
564
526
487
480
473
467
428
400
396
381
399
433
477
496
534
565
576
568
560
533
513
506
512
513
515
521
511
500
483
478
484
503
512
501
514
517
519
522
514
513
514
519
519
508
483
493
489
479
476
466
465
476
494
521
527
529
536
528
522
521
527
520
518
512
521
542
545
539
528
513
510
515
508
509
498
490
489
483
468
467
451
440
446
454
449
462
475
503
509
519
535
542
540
536
540
535
568
581
568
547
540
539
516
490
464
460
451
448
436
441
441
448
460
489
514
543
552
529
519
511
521
524
539
553
548
546
547
527
508
483
463
436
431
446
471
489
479
489
521
541
537
540
536
534
533
525
538
554
574
587
579
533
497
473
460
451
448
440
424
405
404
414
425
424
424
434
465
506
538
571
581
590
591
586
577
560
549
546
543
540
527
523
509
504
503
526
559
568
579
569
546
519
473
432
376
346
339
359
402
449
515
574
603
592
548
504
463
433
415
402
404
431
496
575
590
583
571
561
552
544
539
537
531
529
524
529
530
531
528
522
551
563
572
584
580
585
665
670
600
533
481
415
346
299
280
295
307
325
335
327
339
335
342
400
458
510
561
624
655
693
693
657
606
564
557
568
578
576
562
562
556
532
508
494
505
517
497
500
526
533
542
532
506
462
431
400
396
432
433
412
408
417
438
482
544
590
652
663
660
669
645
590
533
477
429
387
344
324
325
308
326
450
583
657
682
663
624
596
579
551
526
495
456
420
392
381
360
381
434
492
545
589
652
695
699
668
651
619
566
509
438
383
315
280
269
278
288
328
381
507
596
639
668
657
632
607
579
568
562
547
519
481
428
403
413
430
472
480
526
536
575
646
649
608
550
492
456
477
519
499
496
439
370
357
351
355
411
465
538
580
655
659
630
611
595
561
526
531
527
515
510
541
566
581
560
506
474
451
435
414
340
238
158
190
265
404
511
620
734
828
863
869
756
640
534
444
388
331
319
319
311
316
359
415
462
526
527
515
544
607
649
635
600
654
674
694
652
561
478
408
386
387
376
415
475
588
637
684
686
568
424
271
199
239
303
363
426
501
633
740
767
742
738
691
569
425
292
225
207
223
284
443
608
730
797
806
738
632
488
378
275
201
211
255
337
410
516
622
655
632
593
565
507
496
547
559
623
689
750
810
766
691
619
547
511
500
425
261
152
156
182
237
289
369
480
615
692
696
618
595
548
473
438
425
406
476
543
567
578
553
463
370
368
476
595
637
667
663
588
529
498
448
422
484
576
670
674
595
548
511
454
429
431
481
512
551
562
465
390
347
294
341
371
343
388
442
533
623
636
609
592
569
569
563
541
528
499
523
572
572
577
585
545
532
532
441
422
491
614
716
787
760
631
461
301
180
22
0
0
100
193
255
342
416
551
856
1022
1022
1022
1022
931
781
654
534
353
180
88
84
96
56
155
307
416
547
607
603
594
653
787
910
982
1015
1022
1021
844
600
343
115
0
0
0
0
131
335
496
632
744
760
695
607
600
567
551
492
440
376
444
540
656
583
461
512
601
647
639
586
528
414
326
192
131
123
173
232
321
533
651
721
764
822
868
878
932
938
995
922
760
550
354
182
60
0
0
0
103
261
505
699
840
906
865
883
897
696
416
162
15
0
0
0
176
296
435
556
672
752
782
769
751
746
727
705
689
663
685
747
708
613
695
691
636
549
453
336
199
84
0
0
51
132
225
376
524
556
638
636
648
678
750
752
731
752
799
690
583
501
399
330
278
300
311
392
550
638
611
606
614
661
688
637
553
497
454
423
381
274
317
393
415
419
471
537
624
673
659
643
591
477
490
401
399
304
171
163
270
335
447
503
624
728
740
658
600
700
749
772
822
895
874
670
527
448
341
163
87
139
189
219
324
497
489
432
491
352
331
332
401
536
644
695
742
892
830
755
642
501
395
368
481
636
758
812
704
578
478
329
176
310
487
496
559
518
409
387
319
247
230
318
395
452
443
446
431
472
575
620
711
771
720
654
730
872
1022
1022
855
512
124
0
0
0
206
271
518
583
510
475
440
359
289
438
588
773
870
871
921
896
792
648
387
93
39
129
161
141
211
470
808
980
946
887
711
620
391
209
83
42
176
225
384
542
650
748
922
1022
1022
1022
728
315
0
0
0
0
66
132
355
332
403
591
745
760
774
955
1022
970
746
579
406
274
182
167
227
387
531
672
690
810
747
695
586
523
414
346
421
457
650
689
542
553
415
197
75
65
102
216
397
801
1022
1022
999
849
503
114
0
0
201
257
396
506
493
484
517
729
867
1022
1022
1022
859
556
244
53
0
40
137
249
585
697
830
777
611
416
424
391
295
302
260
328
415
700
880
1022
921
612
457
231
34
127
175
233
269
476
970
1022
1022
1019
735
717
617
623
349
0
0
0
0
75
355
598
896
1022
1022
841
691
609
436
327
230
230
249
292
440
612
879
908
775
625
499
663
665
547
427
270
278
206
94
0
179
441
648
702
748
831
917
1022
1022
992
722
404
136
61
0
0
0
37
105
313
555
803
953
941
842
710
615
524
417
361
379
361
463
516
697
765
720
573
527
448
380
725
820
659
400
190
0
0
0
254
433
560
658
701
686
667
619
588
577
587
670
888
903
799
602
428
303
280
224
165
245
408
479
470
455
472
507
518
569
572
552
551
552
512
490
481
477
486
521
560
555
556
557
552
536
531
531
520
515
507
501
553
548
524
491
476
464
447
435
429
415
441
481
526
537
512
519
547
592
670
725
683
667
548
408
336
300
230
242
282
387
481
549
575
569
553
546
554
560
559
552
547
544
533
529
522
516
504
489
489
484
500
524
526
534
536
534
520
515
509
503
497
496
500
499
491
481
466
465
451
461
472
482
491
505
503
500
517
533
530
524
521
521
516
514
505
508
489
518
529
633
662
601
524
454
402
349
350
377
435
497
545
548
542
551
533
506
493
484
479
479
491
512
519
547
543
520
511
533
544
525
525
527
513
489
491
490
480
471
485
472
474
480
488
501
508
515
527
527
528
526
518
515
515
515
513
506
499
504
498
492
487
483
501
508
513
568
566
552
526
488
452
424
408
411
472
510
512
529
536
519
505
501
504
514
521
528
538
540
534
532
519
510
493
483
477
473
473
484
486
484
493
495
534
588
579
570
535
500
463
441
416
393
470
505
509
524
523
514
516
515
526
547
529
505
499
476
463
466
476
484
494
497
505
524
547
564
567
551
528
507
482
475
468
446
459
489
516
518
509
519
527
526
526
522
517
518
522
523
525
549
585
589
558
519
481
445
401
372
374
364
408
452
484
511
542
558
560
555
543
529
534
526
513
517
516
510
511
527
526
522
508
502
499
499
497
513
508
514
519
520
532
510
506
521
552
576
560
533
496
452
439
459
457
443
409
435
450
443
439
430
439
465
487
504
563
600
593
558
525
512
503
491
514
522
519
519
526
519
519
527
519
516
511
506
508
514
514
509
512
508
510
517
515
516
515
519
531
537
527
520
520
555
526
494
455
433
418
416
441
464
451
453
461
476
497
510
536
548
547
556
556
552
550
540
525
516
504
488
473
458
480
507
518
519
509
499
495
488
486
482
483
483
484
486
496
510
536
555
586
627
611
591
544
489
454
417
389
377
368
384
426
487
519
529
534
519
514
512
527
541
547
547
556
585
597
593
568
536
506
484
455
432
423
414
423
462
487
501
519
532
532
521
516
524
526
532
543
524
513
500
493
500
507
516
521
515
515
504
486
463
456
460
468
475
481
500
511
515
547
547
570
578
552
529
506
479
458
453
466
472
466
475
478
492
505
511
514
513
504
497
498
504
500
525
600
623
626
607
580
554
516
480
436
404
359
338
327
370
444
481
508
532
541
547
552
564
578
591
659
680
666
613
546
496
450
415
379
356
335
352
351
398
448
477
520
551
554
556
560
555
540
519
540
553
574
582
571
539
510
486
478
470
465
457
450
461
486
511
525
520
523
517
500
496
493
488
486
495
491
504
517
524
527
522
521
514
510
511
512
506
506
504
504
502
497
504
504
515
526
539
540
539
521
506
493
486
483
475
480
475
477
492
499
500
511
508
534
573
568
541
519
499
475
460
455
453
445
441
461
473
486
504
490
487
494
494
509
526
518
508
508
531
535
528
514
495
485
480
497
519
543
550
532
523
507
494
489
488
482
478
481
508
525
530
526
526
531
525
515
502
506
512
524
533
530
516
499
498
517
540
538
518
515
519
521
514
497
481
452
435
419
415
412
419
430
467
512
531
543
561
577
582
583
572
559
545
525
515
498
479
468
450
443
448
458
458
459
455
463
467
477
500
529
535
547
567
572
567
578
565
550
537
517
504
486
481
475
481
480
477
482
486
483
489
494
496
496
499
507
510
500
505
521
524
519
531
556
575
592
598
568
534
494
463
438
422
406
398
398
427
445
465
488
505
526
550
560
562
549
542
533
520
500
489
484
491
507
507
502
483
479
474
471
486
504
518
525
533
540
537
527
523
529
526
527
527
533
534
530
519
508
500
488
485
482
478
481
476
475
485
494
493
500
512
507
516
524
528
523
516
511
496
499
497
493
489
495
497
525
553
591
582
562
543
534
511
494
474
470
479
486
496
494
487
455
424
412
406
407
401
416
430
471
508
536
553
575
584
585
591
602
590
568
536
512
503
486
480
471
462
469
474
485
503
502
517
524
520
512
505
494
484
468
466
468
492
530
566
590
590
588
580
557
525
505
499
496
491
488
488
475
462
456
447
447
453
477
542
583
624
652
669
621
551
456
369
291
228
219
250
307
368
436
517
586
652
703
685
653
619
590
544
501
483
498
515
492
528
554
556
543
523
513
481
476
455
438
461
482
495
485
473
461
465
473
497
504
493
484
455
456
498
568
642
677
666
645
634
622
571
503
428
387
388
407
400
412
410
415
473
518
519
500
478
455
477
492
495
503
578
580
604
616
611
581
551
495
476
503
501
440
427
472
604
644
637
568
547
538
495
420
346
282
226
223
224
229
212
236
322
453
590
736
807
852
863
855
805
723
651
574
520
471
446
433
423
412
391
381
392
418
430
471
533
560
556
568
568
549
551
525
492
476
492
524
573
578
576
592
584
590
580
526
473
388
304
301
374
415
469
531
560
547
582
553
468
442
398
369
388
454
487
484
463
467
537
590
593
561
684
726
696
652
608
556
512
462
387
329
235
174
172
157
210
325
490
636
739
776
756
699
638
578
547
556
549
533
536
569
598
698
804
880
964
947
833
705
499
252
27
0
0
0
0
144
309
504
661
751
767
738
721
614
475
372
438
579
612
606
616
588
622
604
504
418
362
313
278
309
368
435
531
634
731
787
798
773
766
775
706
611
455
322
235
135
94
183
289
514
753
817
860
815
668
533
404
280
272
356
384
391
414
461
499
487
569
654
592
502
452
483
499
459
426
471
552
633
775
732
605
483
463
393
374
348
462
460
411
463
573
566
571
547
495
493
456
485
553
547
491
470
490
475
475
416
375
340
413
526
538
559
588
582
608
671
627
540
414
304
240
218
315
388
398
473
553
698
841
904
934
888
773
662
561
488
446
353
299
319
300
314
312
303
393
399
458
579
593
563
540
543
579
591
588
603
586
574
543
527
543
518
442
410
424
590
588
451
307
217
198
199
234
352
495
654
757
812
868
840
760
667
590
523
491
470
534
566
614
632
671
587
412
211
44
0
0
84
327
481
675
712
744
724
747
777
909
935
868
748
598
555
463
326
136
0
0
0
15
167
316
524
705
835
912
912
731
702
678
647
610
553
606
534
518
435
236
81
12
129
231
396
581
639
721
737
759
721
598
518
464
405
380
412
473
538
569
824
941
966
953
969
926
588
212
10
0
0
349
606
679
602
435
154
0
0
0
64
246
481
726
842
850
875
792
707
652
622
641
658
670
662
707
634
645
789
848
755
746
653
429
204
86
35
0
0
0
113
295
416
514
585
703
831
1022
1022
1022
1020
778
591
407
169
0
0
246
476
730
689
471
288
201
82
70
122
226
305
596
776
754
770
747
704
638
547
535
619
735
696
631
584
568
550
504
431
331
326
445
542
581
529
428
479
533
547
553
791
989
1022
955
647
375
51
0
0
0
209
234
151
89
69
167
330
428
637
915
1022
1022
1022
1022
1013
918
762
580
503
457
438
406
438
487
471
315
133
64
111
189
123
293
491
633
751
948
1022
1022
1022
1022
792
263
0
0
0
0
0
275
471
660
994
1022
1022
771
424
3
0
0
0
36
184
394
527
619
852
879
931
898
884
801
706
619
543
596
611
652
632
671
627
464
321
300
366
573
919
972
768
478
324
489
496
251
184
199
68
0
0
0
292
684
935
1022
1022
1022
1022
799
445
385
462
375
148
159
31
0
57
255
368
467
644
724
628
548
640
720
737
731
745
911
1003
974
736
553
479
225
0
0
175
422
482
508
416
450
425
500
512
375
475
491
529
483
230
254
490
546
563
579
735
856
844
751
665
534
481
422
418
368
678
769
824
934
916
504
246
104
0
0
0
0
137
535
1022
1022
1022
960
533
251
192
78
78
148
291
441
554
624
696
703
622
538
541
626
899
1022
1022
839
532
101
0
37
158
135
293
451
639
999
1022
967
705
262
0
0
0
187
478
617
689
663
759
917
971
825
621
702
545
366
206
78
39
113
345
451
426
487
545
691
903
946
883
791
625
415
400
444
836
1022
804
492
240
51
0
0
0
86
305
413
508
659
823
884
859
798
694
623
561
559
579
548
519
530
537
528
517
510
506
499
527
551
589
585
512
456
463
526
562
525
481
393
387
355
406
382
355
400
479
483
573
612
598
546
462
402
441
508
552
582
588
582
571
574
562
551
540
508
512
520
511
495
460
450
426
440
478
472
483
489
497
512
532
536
526
524
523
524
529
527
515
507
505
505
506
509
509
502
484
503
508
490
484
483
471
470
484
501
512
504
530
527
523
515
508
498
504
508
524
522
512
496
477
472
460
462
467
487
493
513
552
572
583
580
553
537
529
523
498
560
543
456
406
383
330
292
331
384
486
550
583
604
585
573
567
558
551
544
535
525
521
514
515
512
511
512
506
516
521
512
501
497
496
480
481
493
513
534
530
524
504
489
469
456
445
481
497
499
500
507
514
522
524
582
576
542
505
481
465
444
432
401
459
493
508
534
553
548
536
531
519
519
529
528
521
508
495
488
474
484
472
481
507
507
520
524
527
517
508
505
507
501
508
508
507
515
521
520
510
515
515
524
516
513
512
503
500
486
455
460
474
481
459
488
503
501
498
483
475
470
480
503
520
533
534
539
532
530
523
524
526
535
545
543
558
571
548
516
487
455
425
430
436
436
461
497
512
513
523
544
541
539
530
506
519
530
503
479
497
555
556
517
499
444
457
480
466
458
467
481
494
480
481
511
528
526
523
524
521
530
534
527
527
520
528
530
529
542
538
568
569
535
499
464
442
431
415
417
430
444
499
521
519
515
512
500
496
514
531
531
528
543
541
531
534
518
498
497
487
494
506
505
505
504
488
455
440
442
449
459
474
506
543
556
559
556
572
591
567
534
514
480
452
449
428
405
419
451
479
501
527
526
515
501
493
485
490
509
527
529
532
527
528
524
527
533
553
545
532
514
490
481
472
464
465
460
443
489
526
551
552
543
531
515
508
496
483
472
467
487
523
543
545
539
523
507
486
477
464
465
490
520
528
537
535
534
534
516
498
482
475
464
450
451
461
481
487
489
489
495
503
514
521
536
541
556
563
560
554
536
518
499
476
470
460
454
454
466
484
488
514
521
515
510
500
496
498
501
503
523
529
533
540
536
530
524
518
519
513
507
499
499
491
487
482
480
488
492
493
498
508
505
506
516
516
521
520
514
517
519
509
502
492
483
483
483
483
477
476
492
504
504
509
511
518
529
558
560
558
545
540
535
524
509
482
454
437
421
417
423
432
445
477
504
516
530
544
538
525
526
529
528
531
532
535
536
532
521
518
509
507
507
499
497
486
486
482
478
487
487
491
498
508
515
521
531
534
536
539
535
519
504
489
478
462
453
454
454
465
491
505
519
537
539
535
537
544
588
612
604
574
550
526
504
472
439
405
376
356
344
355
359
396
443
504
569
612
611
597
580
567
561
563
559
541
529
508
499
485
472
458
454
459
472
493
505
510
511
511
523
523
520
517
516
519
524
525
514
504
498
498
499
497
497
499
501
507
511
509
514
513
507
515
521
519
513
524
532
543
534
524
508
489
477
483
483
462
446
435
435
454
464
472
483
506
532
549
549
554
547
527
510
511
508
507
494
489
484
484
491
493
500
508
514
515
512
520
533
562
570
566
560
549
527
490
463
443
431
415
395
393
408
445
483
504
510
522
537
546
544
542
536
545
552
545
539
534
535
525
530
521
509
504
497
487
482
481
478
474
472
478
484
490
497
514
515
522
533
544
537
536
532
524
514
505
505
528
524
515
512
509
503
502
494
478
459
447
444
441
456
488
508
527
544
553
539
516
487
486
495
486
470
464
467
481
496
492
488
485
504
519
532
556
569
563
544
526
510
505
503
501
502
502
505
510
519
542
551
555
556
559
543
523
493
469
446
415
387
370
366
370
412
457
497
518
546
563
569
563
569
592
599
597
597
582
578
567
551
528
510
480
455
440
417
402
398
391
393
405
423
468
509
532
559
551
544
539
539
537
536
522
517
521
524
526
519
510
521
524
521
521
520
512
504
491
491
498
519
523
516
509
508
508
498
480
478
488
499
489
486
492
520
529
534
525
536
551
565
560
550
533
510
484
459
444
424
424
434
432
425
433
440
465
492
510
573
634
654
644
614
600
563
511
482
462
453
453
439
415
382
367
367
379
408
445
486
544
598
632
633
643
629
596
561
515
473
462
446
437
417
413
428
464
507
529
559
580
603
659
664
652
637
603
566
507
448
404
354
322
294
287
294
315
348
408
488
560
613
656
692
732
763
738
696
642
579
508
462
418
388
372
346
311
304
302
300
344
405
488
547
591
638
679
725
739
762
748
694
630
574
499
413
326
251
212
227
315
401
480
545
622
653
683
695
672
599
489
391
366
367
327
319
306
307
372
487
563
639
687
718
741
724
679
578
494
433
404
415
442
465
489
510
487
472
437
396
403
480
571
586
610
583
557
547
551
550
547
534
577
589
572
495
394
333
286
288
329
388
470
493
491
476
457
463
488
523
594
652
669
701
749
761
734
646
523
417
328
317
324
358
459
547
623
627
567
517
499
526
483
429
382
411
455
507
481
457
455
438
444
456
419
377
354
418
504
585
638
686
683
678
674
643
588
525
487
461
443
434
433
412
411
413
487
600
609
595
601
606
568
493
401
332
296
279
309
387
474
544
641
678
639
599
531
511
516
526
535
584
633
656
660
714
760
701
545
375
236
153
114
145
188
232
303
389
455
538
611
629
768
881
955
938
834
679
499
319
159
67
12
41
217
392
563
667
717
746
823
882
850
784
761
739
689
649
579
470
324
252
229
127
31
53
105
187
270
361
442
535
620
708
774
850
863
896
881
856
877
887
765
522
272
63
0
0
0
0
0
220
521
697
787
822
837
903
937
907
832
768
663
555
494
438
343
238
190
181
248
408
520
526
534
617
744
817
829
785
657
498
413
343
269
115
53
88
151
280
438
621
717
748
756
713
769
855
903
933
986
921
739
517
230
21
0
0
0
0
62
379
557
658
680
708
708
633
609
617
735
829
899
1022
1022
1022
912
704
545
447
364
169
28
0
0
157
218
295
356
383
487
571
648
718
904
968
974
921
732
481
332
199
116
0
0
200
473
597
636
728
713
652
560
536
489
476
516
524
463
543
659
846
996
883
624
397
193
81
35
27
39
137
302
419
566
682
798
796
760
749
735
664
565
488
524
562
612
692
775
784
682
538
372
198
131
224
283
259
227
242
337
380
443
486
654
798
865
904
977
1004
877
681
513
295
152
110
24
59
37
103
222
343
419
524
653
765
848
834
790
781
752
769
718
656
568
500
502
467
363
256
225
200
235
356
449
480
621
640
657
706
675
636
681
770
769
714
856
900
633
290
0
0
0
0
0
0
263
492
685
753
839
856
831
822
852
860
862
931
891
813
651
450
291
223
229
391
490
543
616
622
509
486
364
273
264
441
529
647
591
517
475
341
265
222
163
253
307
406
582
682
770
837
865
864
841
872
723
563
502
480
376
246
125
131
234
327
385
337
487
566
616
717
726
726
691
637
519
443
469
569
861
899
756
598
404
215
18
0
0
66
318
510
582
531
501
617
693
909
880
751
651
534
419
443
371
243
231
245
323
328
475
623
696
728
713
655
606
590
572
528
500
486
493
486
532
504
496
506
482
482
596
700
695
713
688
614
474
475
462
352
205
79
4
98
268
553
656
778
744
707
773
704
521
286
251
200
209
326
349
442
598
888
1022
1022
870
664
471
312
223
290
381
413
303
215
291
407
703
706
545
559
533
440
355
337
390
502
708
772
760
666
593
538
397
331
277
225
231
284
355
471
585
623
623
660
664
673
670
672
766
748
674
612
556
509
488
431
346
289
287
265
225
182
260
662
850
798
822
757
556
391
340
219
151
255
263
281
334
432
572
659
709
720
707
687
649
637
616
619
583
568
515
496
612
728
697
536
390
193
236
361
435
494
530
630
626
498
548
475
337
291
235
144
279
329
367
409
476
549
567
613
750
779
761
734
690
696
696
615
519
400
350
376
376
376
433
577
625
646
752
782
722
699
634
452
263
158
92
60
110
160
239
329
464
505
577
607
696
733
761
794
793
723
671
613
516
437
390
376
418
427
451
483
472
471
499
571
640
647
569
484
443
424
398
421
447
459
498
542
550
542
611
634
575
530
457
435
419
420
452
403
406
452
466
427
462
484
486
521
558
595
610
600
593
585
564
541
528
508
488
472
457
460
470
489
508
504
495
499
509
545
544
551
549
522
484
455
448
453
457
479
487
502
522
517
513
512
511
513
514
537
564
571
556
531
500
469
463
442
435
440
462
477
492
482
486
511
523
524
533
537
547
551
531
520
515
511
500
499
504
504
498
496
493
495
496
499
499
499
512
524
519
511
497
485
507
519
529
524
512
495
489
495
497
498
505
487
495
497
478
472
511
528
527
530
540
546
526
508
482
468
448
433
430
470
512
519
529
539
558
550
536
522
514
509
487
475
449
463
487
498
503
514
515
518
521
522
515
515
514
515
512
505
497
499
506
505
496
491
511
544
534
515
505
491
483
467
466
448
469
515
528
520
531
535
537
527
515
499
489
504
500
517
519
528
558
551
542
529
502
467
445
444
406
403
430
441
467
515
537
547
536
539
531
522
519
511
513
527
520
521
518
512
514
505
498
505
508
506
505
510
524
523
505
501
490
478
472
471
484
485
495
493
487
532
570
562
528
504
500
497
486
476
439
473
517
533
531
540
533
511
490
480
484
474
480
493
509
509
524
542
523
503
502
505
507
504
500
503
499
490
480
513
540
546
545
538
513
505
483
474
466
473
485
476
482
486
472
467
473
478
515
543
560
597
590
571
556
550
520
495
484
448
401
421
451
466
467
472
486
494
496
500
510
527
523
527
528
528
528
528
526
524
518
516
511
508
503
507
504
505
505
506
516
531
554
549
532
508
479
468
450
439
435
415
468
527
550
547
546
544
523
502
493
478
479
496
511
514
518
523
518
502
490
502
499
507
501
495
502
507
491
476
463
478
510
528
530
521
505
504
492
488
485
484
497
515
527
530
527
523
511
515
512
510
510
511
505
508
512
509
502
498
494
489
486
489
499
503
512
510
506
534
580
590
590
572
536
513
487
477
454
468
439
443
449
457
459
449
438
423
438
474
512
538
537
526
521
536
530
529
529
528
534
540
534
527
522
513
500
504
498
496
504
488
479
465
468
496
530
543
534
546
544
545
540
527
514
503
502
510
513
509
489
472
466
463
454
454
454
453
459
472
483
510
550
582
592
589
583
570
534
515
487
472
454
428
414
397
419
483
521
540
545
542
548
547
544
543
537
534
525
509
502
489
477
483
524
559
573
549
516
487
460
449
456
452
453
459
472
480
487
495
515
527
510
494
481
479
481
477
469
465
478
487
500
521
556
575
581
576
572
560
542
529
513
510
507
505
499
504
513
515
508
494
487
482
476
467
467
492
542
550
552
548
541
520
508
495
477
474
466
468
467
472
472
486
502
528
555
582
609
598
574
530
477
422
387
361
358
382
406
444
471
501
531
559
581
585
569
548
529
509
500
490
498
513
506
504
499
497
502
496
512
528
537
531
522
525
527
534
534
531
550
537
527
510
497
481
471
467
464
464
479
492
499
514
510
508
505
496
497
500
495
492
496
495
512
546
553
548
548
546
540
531
515
502
489
477
470
463
457
441
438
440
453
473
499
518
538
540
546
540
536
517
510
507
505
503
502
505
505
507
510
499
488
470
462
479
486
489
494
504
505
528
534
537
545
543
522
514
508
503
489
489
474
465
467
470
486
510
527
534
531
540
541
533
529
525
519
509
502
495
494
496
497
496
494
499
499
504
509
510
507
510
509
507
500
507
516
520
521
519
514
495
488
480
490
487
493
501
517
524
545
540
539
524
516
497
482
462
443
424
423
428
438
466
485
513
551
575
597
621
637
623
577
548
504
485
467
440
442
442
442
444
428
421
415
422
438
460
484
500
504
510
514
525
546
553
557
565
554
553
555
550
534
523
516
506
487
471
466
469
496
512
519
526
534
523
518
507
500
496
496
493
495
494
490
495
503
513
521
532
529
525
525
522
520
519
522
528
535
528
520
519
522
517
508
500
474
457
463
457
444
438
443
450
494
539
553
548
518
494
471
462
432
423
420
426
473
534
574
583
569
550
538
526
533
566
566
557
542
505
472
435
408
392
405
425
443
477
531
582
601
592
582
552
530
521
522
512
502
510
529
534
538
531
518
498
494
483
466
455
451
518
590
615
596
579
560
550
556
513
423
348
278
255
284
314
391
507
585
632
642
636
639
623
563
497
476
499
525
562
548
476
459
424
387
362
383
391
387
422
487
543
553
553
555
560
554
575
562
531
519
505
508
540
568
585
618
637
628
625
616
591
583
547
487
438
440
437
401
356
310
254
264
295
360
487
535
556
573
611
617
575
548
536
534
524
505
489
474
456
478
547
630
660
711
792
798
759
679
598
543
518
477
414
351
256
146
71
42
25
39
97
214
386
538
714
839
872
839
808
745
664
587
590
580
542
465
421
407
446
491
536
560
591
616
666
679
675
618
510
401
368
408
444
428
423
471
473
439
393
359
343
335
345
411
470
473
489
518
558
577
580
653
799
854
824
793
702
597
498
368
219
132
129
199
362
435
449
509
556
615
618
631
668
706
694
683
654
678
651
592
567
519
415
236
79
0
0
0
181
387
576
747
833
846
775
694
622
583
583
642
737
718
672
628
606
568
443
390
314
233
139
45
15
83
210
413
621
764
899
960
990
958
904
873
808
721
587
432
342
285
216
144
76
0
0
126
279
366
377
483
702
855
909
921
850
721
677
639
540
399
361
299
242
200
172
250
379
510
596
623
715
764
773
797
832
813
742
736
610
479
376
292
207
227
249
328
489
556
520
504
502
472
447
484
550
647
596
611
512
345
224
149
153
184
364
527
689
686
643
632
668
748
755
723
651
577
530
497
454
376
520
679
679
609
564
522
460
426
416
368
280
158
33
51
135
355
609
727
843
913
894
904
818
677
568
487
531
580
452
410
347
380
359
289
201
187
243
326
302
380
393
520
601
695
761
749
696
612
680
685
618
620
630
604
553
452
346
224
176
192
271
378
548
646
664
643
592
617
667
714
768
815
896
877
780
593
418
247
87
15
14
127
97
86
127
174
195
452
830
1022
1022
1022
1022
915
708
462
260
162
78
0
38
176
231
294
409
455
481
528
591
754
808
854
857
931
903
830
702
589
490
373
220
241
400
483
436
377
401
482
587
522
349
179
212
238
312
339
598
815
877
727
657
591
515
487
464
416
366
385
433
469
522
644
660
591
492
353
316
339
435
584
782
848
823
889
868
627
367
143
0
0
200
348
395
487
439
453
571
741
752
640
572
505
446
439
535
635
619
616
622
519
424
355
413
494
489
424
450
370
460
516
520
515
517
587
605
648
671
772
788
747
704
711
694
547
407
249
86
0
0
0
38
247
394
581
672
714
736
725
818
1022
1022
1022
1010
717
401
39
0
0
0
0
175
535
785
810
775
772
655
596
512
663
728
698
574
559
523
374
203
121
222
375
413
428
417
411
339
395
497
648
689
690
657
650
686
724
735
740
770
679
564
454
452
430
364
278
223
207
222
256
391
503
717
850
847
821
689
687
712
694
689
734
719
515
353
191
72
0
0
0
0
0
255
378
521
743
941
1022
1022
1022
1022
1022
858
655
451
385
323
73
0
0
103
231
322
363
498
639
775
934
1015
984
838
647
464
290
210
290
267
236
330
480
572
607
646
755
767
658
659
683
873
731
625
400
98
0
0
0
39
371
788
940
883
786
679
607
540
452
502
485
403
399
359
339
568
621
506
462
543
849
730
592
547
545
458
197
293
500
589
587
671
677
536
360
241
183
183
298
411
532
607
705
748
690
703
680
644
563
523
592
551
442
388
365
306
355
393
432
586
859
956
958
806
620
365
229
244
226
160
142
167
221
300
451
571
876
1022
1022
956
727
426
207
161
81
103
154
200
260
276
512
719
743
729
711
684
663
638
636
648
622
618
578
477
439
460
487
487
481
579
580
519
471
385
339
341
334
304
309
395
448
516
714
788
776
711
637
718
713
738
578
423
232
153
60
2
0
90
293
489
723
773
734
692
626
617
600
560
524
540
549
512
484
466
498
527
524
553
552
565
550
531
551
580
574
539
517
512
490
490
437
414
449
465
441
464
468
490
486
451
487
553
592
606
568
519
474
444
444
449
476
487
472
466
472
491
513
521
533
558
569
568
575
570
540
528
523
490
461
440
459
457
438
428
450
471
509
512
526
529
532
534
528
532
525
522
510
508
504
509
511
516
512
510
508
503
510
503
499
491
502
507
510
519
518
519
511
504
492
477
471
476
483
495
496
503
527
523
519
506
513
518
507
504
492
478
474
481
504
500
515
524
515
491
500
536
549
539
534
520
524
503
467
447
456
441
440
438
501
524
519
518
531
536
530
531
540
555
563
565
537
514
485
459
441
441
470
472
472
494
506
508
514
521
515
508
504
511
514
512
519
527
525
520
516
511
498
492
487
488
494
494
515
523
516
514
510
503
523
541
547
531
517
492
473
456
433
449
452
471
504
500
494
489
504
526
531
527
520
523
538
550
544
534
512
492
482
468
456
462
486
512
519
511
524
516
509
506
496
491
550
568
555
524
486
463
439
432
406
431
469
506
535
557
578
566
546
523
506
504
491
496
502
510
542
545
524
507
495
475
477
477
452
470
491
506
522
519
506
505
511
515
545
539
543
555
548
517
499
477
431
404
410
440
466
469
499
516
524
537
543
533
522
521
518
519
516
516
515
527
537
540
528
518
502
496
494
505
490
484
488
528
550
536
523
490
467
456
441
428
396
432
473
503
514
511
527
543
545
538
527
523
515
510
507
511
518
518
525
528
527
527
528
527
520
512
503
504
507
500
500
496
469
451
436
464
478
493
512
516
514
504
517
530
527
534
516
498
487
480
480
453
459
467
485
508
536
533
529
524
515
508
507
506
507
508
505
500
511
508
504
507
513
513
510
525
527
525
520
509
519
509
494
491
488
484
470
466
520
548
568
579
578
573
539
504
468
432
394
377
406
412
413
428
510
561
586
581
564
546
529
504
478
454
466
491
499
511
533
588
612
593
563
534
509
480
459
441
423
419
428
463
469
472
495
512
542
559
550
531
523
515
509
511
510
511
507
503
499
494
492
481
493
495
510
510
510
507
503
514
515
515
519
526
534
527
523
520
511
502
503
504
498
501
494
491
503
508
501
500
495
494
486
476
471
467
471
478
494
508
529
562
591
576
551
529
502
487
470
466
465
472
468
469
483
497
508
521
516
503
494
492
491
479
476
488
509
530
532
536
536
568
565
555
536
529
523
506
492
480
472
473
473
487
515
516
532
539
543
559
529
490
448
433
428
434
446
459
451
450
468
491
490
496
514
526
530
534
544
554
547
534
521
514
518
511
515
518
532
536
532
520
517
508
505
496
489
490
488
492
494
496
496
499
502
511
516
519
515
535
542
546
536
512
500
484
475
467
459
446
448
450
460
473
495
519
524
535
540
540
563
569
573
566
565
530
506
492
489
488
485
473
457
430
411
425
442
465
477
482
506
543
652
711
713
677
632
572
514
460
403
368
324
310
312
299
315
367
438
492
557
571
581
593
615
622
608
574
555
540
518
513
506
506
515
520
511
508
517
509
502
497
485
489
493
500
503
500
512
516
524
523
509
500
494
515
523
523
544
553
551
536
524
515
488
466
452
451
446
471
505
529
518
517
519
523
519
515
510
508
506
487
485
484
483
496
515
507
496
475
459
427
426
442
457
447
455
444
483
548
579
588
569
568
595
620
622
625
637
636
616
565
514
454
398
362
359
359
351
346
350
363
418
466
497
515
521
528
529
523
529
537
540
582
591
582
566
563
573
572
564
548
531
517
503
491
472
464
459
455
456
467
477
486
490
499
509
520
532
525
526
524
524
520
513
512
511
511
506
507
510
512
512
507
511
509
516
507
502
496
486
485
476
468
472
474
480
492
535
558
562
576
579
569
548
526
502
477
460
448
433
418
404
395
419
450
478
507
528
555
590
626
633
606
559
516
483
453
425
408
404
405
397
406
433
459
467
472
488
503
520
554
588
601
616
651
657
636
622
598
577
542
505
472
442
423
404
395
396
415
441
471
474
477
490
491
506
512
524
537
542
568
652
705
731
707
677
639
576
514
429
328
245
191
164
192
280
353
401
462
541
595
622
617
612
598
579
576
563
542
529
565
590
587
579
549
555
564
540
500
472
458
449
443
443
438
446
439
421
417
404
406
391
407
459
519
550
579
615
630
644
629
603
588
574
556
560
548
530
490
478
444
412
371
341
353
405
466
529
600
615
607
588
583
565
522
473
449
416
420
430
436
443
467
510
530
552
568
619
657
679
687
681
654
626
553
485
392
295
218
207
241
283
388
457
451
496
575
615
594
535
525
552
604
577
497
408
332
297
298
366
444
543
623
683
698
698
660
625
628
651
614
595
585
567
511
443
382
345
328
319
323
315
298
332
399
511
612
703
747
712
684
683
632
615
560
510
541
573
564
514
470
418
386
374
378
362
347
317
330
439
535
564
562
508
525
573
552
505
457
604
781
823
830
821
726
592
433
261
145
69
67
102
120
159
247
372
490
622
620
622
628
594
581
660
751
782
789
764
767
742
657
510
355
231
175
180
244
319
436
597
751
859
824
754
728
723
689
596
432
351
341
378
370
321
238
184
170
226
277
268
332
467
669
763
781
737
651
633
600
506
499
516
612
676
702
675
576
502
409
316
278
202
287
432
498
515
541
649
802
800
760
705
706
639
583
514
394
239
124
31
0
0
60
282
412
527
741
854
873
784
748
644
550
531
493
425
286
289
366
352
371
415
530
675
776
878
946
910
843
853
871
852
751
483
136
0
0
0
0
0
56
534
885
1022
934
823
760
726
716
736
724
768
876
929
924
875
779
583
297
91
0
0
0
0
250
576
754
866
854
784
697
608
553
533
515
385
265
159
205
330
479
567
652
710
753
660
528
415
375
357
396
457
656
777
784
778
758
682
551
486
351
199
65
37
74
192
412
591
764
925
984
900
737
540
373
267
200
179
280
400
549
592
573
587
582
574
667
639
668
734
694
490
280
120
0
0
132
323
465
592
643
623
591
540
486
487
625
797
952
947
905
807
673
491
252
120
3
0
0
154
463
742
915
984
916
715
551
413
375
234
92
123
331
594
772
803
668
567
479
402
361
374
408
598
863
1022
1022
940
696
482
256
48
0
0
0
103
304
428
540
635
852
1008
1022
1022
1022
984
675
387
68
0
0
0
0
89
192
471
674
796
818
768
706
673
694
727
739
758
820
816
817
967
1022
1022
1022
818
475
88
0
0
0
0
0
0
75
332
479
542
755
955
1022
1022
960
755
474
326
277
192
192
252
367
472
571
591
608
625
644
640
649
684
807
852
827
852
731
742
828
699
526
392
314
472
334
187
0
0
0
352
655
718
821
793
695
647
597
460
376
205
119
178
310
460
550
714
832
789
717
571
444
389
443
545
603
606
678
760
1007
952
835
831
640
534
345
27
0
0
54
87
186
722
975
885
715
604
488
396
346
442
759
894
759
696
572
299
35
0
0
33
17
241
405
510
653
693
741
759
952
899
827
756
699
637
627
654
627
577
348
126
0
0
0
0
149
480
811
998
1022
947
854
704
547
512
473
435
539
398
358
362
310
277
452
555
705
698
632
518
428
384
376
620
614
515
551
478
578
416
254
595
686
733
828
612
388
304
289
135
20
0
66
213
298
491
588
818
905
812
659
699
699
655
537
402
344
532
766
939
904
735
466
222
408
432
199
183
160
162
236
364
494
572
605
668
681
704
722
935
1022
1022
857
585
263
19
28
207
319
378
352
399
357
259
319
475
672
794
959
926
778
601
414
319
404
385
466
526
352
113
166
145
272
408
534
754
832
849
851
993
815
542
286
91
0
140
474
720
752
645
498
501
439
334
291
286
373
499
557
590
632
680
742
753
721
704
636
566
417
459
413
332
379
325
361
411
422
525
551
579
600
625
631
664
841
952
897
706
486
218
0
0
0
0
223
430
730
857
812
721
666
615
563
539
463
535
586
601
600
571
552
546
531
527
535
519
529
531
552
563
547
538
519
482
461
457
434
436
421
472
536
543
553
573
519
509
513
492
460
375
365
420
456
505
503
540
562
563
572
564
549
543
531
527
518
513
510
504
499
496
498
499
494
497
503
503
496
491
500
507
506
506
496
493
489
480
497
521
543
531
503
476
454
439
423
469
507
512
511
518
524
528
534
536
537
546
534
505
493
490
472
450
459
456
474
498
497
483
490
514
545
544
534
522
519
516
515
508
511
510
510
513
521
515
513
514
510
504
526
533
525
513
488
473
451
444
427
425
445
481
520
548
550
541
529
528
525
525
523
516
517
518
508
507
505
492
499
517
531
523
510
507
539
528
515
512
520
526
497
463
430
447
457
442
430
461
492
498
505
510
519
527
524
525
523
523
515
562
598
577
541
510
495
476
452
414
422
479
508
502
504
506
517
543
560
542
537
524
494
473
458
450
435
457
479
505
531
554
541
527
525
512
515
514
513
516
524
538
523
496
483
477
469
475
481
493
514
522
524
518
515
521
496
481
492
510
510
513
508
515
525
517
505
498
484
502
489
518
520
520
516
489
468
462
463
472
478
495
499
499
499
500
507
518
517
514
524
524
521
516
542
563
586
614
612
580
542
511
471
423
415
414
432
472
525
529
525
519
517
508
505
499
501
488
510
526
537
532
537
542
542
531
539
547
530
501
465
419
401
408
396
397
425
453
495
524
539
530
545
556
554
552
540
539
526
521
510
500
478
465
451
452
473
508
534
541
576
577
559
528
492
465
439
430
428
437
426
442
454
497
525
531
527
535
527
520
515
534
535
540
544
531
519
511
513
547
554
552
559
519
493
477
458
432
405
375
374
420
460
488
511
532
564
600
612
639
647
608
563
520
476
440
405
368
376
422
410
445
497
525
512
511
525
541
564
591
588
561
549
542
517
491
471
442
453
439
442
444
475
489
483
480
483
471
470
482
518
531
535
528
527
538
544
539
538
536
531
527
528
524
525
513
507
504
499
492
492
490
487
490
487
488
487
494
502
512
509
517
532
531
529
519
512
504
499
492
492
488
482
478
481
497
517
534
543
532
521
510
500
495
504
505
494
496
498
500
505
546
549
537
519
498
489
486
491
507
487
475
503
487
475
504
520
512
502
487
481
456
436
416
391
372
418
472
492
511
536
550
574
578
567
562
562
569
582
572
564
562
566
569
575
562
549
527
492
456
431
419
398
392
402
431
458
476
493
522
529
534
529
529
520
514
547
565
566
557
541
516
513
519
530
532
512
496
491
478
479
491
502
519
530
510
486
470
445
441
436
445
437
445
463
478
499
534
563
553
547
524
531
528
516
499
481
466
462
459
464
484
498
520
583
628
645
645
617
570
535
492
453
423
386
381
384
398
461
501
520
547
547
536
520
516
508
494
484
485
499
516
536
569
602
604
601
593
572
543
515
482
457
430
411
397
384
372
372
400
434
467
504
534
561
584
583
580
564
558
545
539
528
533
521
503
487
477
461
457
459
463
487
524
536
534
528
524
517
508
500
492
488
492
498
513
530
553
563
547
527
500
472
446
428
427
431
445
472
492
513
516
529
545
551
547
547
551
550
547
547
532
513
498
473
457
445
432
438
478
513
536
533
534
535
526
524
506
502
499
500
493
478
464
455
450
478
498
521
527
526
519
510
503
494
483
466
472
467
466
493
547
583
604
601
590
584
592
558
534
521
539
506
465
450
434
410
382
374
376
363
359
375
388
423
477
515
537
530
548
587
613
611
590
569
551
556
568
564
551
536
528
523
516
512
508
504
509
531
543
575
579
582
589
599
590
547
494
431
376
339
302
282
279
315
365
432
480
549
606
615
620
617
611
599
596
574
547
522
491
460
443
432
422
428
448
476
515
550
574
582
572
573
574
564
557
547
526
500
508
512
518
506
504
542
563
557
525
464
407
376
358
338
353
397
452
496
519
546
583
642
672
673
623
545
464
415
385
361
332
324
354
439
552
592
599
615
600
611
634
652
655
654
633
597
548
480
416
370
324
287
274
264
282
339
413
469
506
561
597
617
638
701
742
705
676
626
589
549
496
446
427
412
390
404
462
508
492
498
574
639
638
593
545
564
600
549
484
366
233
184
155
129
181
154
187
310
530
684
799
864
844
811
769
718
688
666
612
606
615
636
622
571
472
334
208
183
199
300
399
534
727
864
908
923
861
722
555
384
242
97
0
0
0
0
0
255
479
665
758
775
795
755
708
669
680
711
768
771
737
686
642
600
547
473
401
401
428
467
484
481
515
621
670
679
677
617
478
367
285
229
163
141
234
343
373
419
494
571
643
676
669
651
628
593
552
516
436
402
460
554
604
590
552
534
543
542
518
450
396
335
346
390
396
461
444
448
497
545
626
647
595
592
621
650
642
622
576
538
503
467
466
439
419
484
503
512
544
577
609
600
539
499
494
436
447
504
576
448
309
265
284
288
293
300
299
327
418
520
510
420
423
509
613
737
879
966
886
807
676
498
381
331
271
242
199
245
363
519
629
655
714
748
734
694
667
587
476
380
339
352
448
515
575
518
470
459
389
387
407
486
540
488
509
540
536
482
384
365
414
435
395
361
365
427
492
601
758
875
969
956
866
711
576
523
399
244
72
29
146
190
226
386
540
655
707
675
624
608
647
700
718
775
752
696
590
457
421
396
274
207
158
75
129
224
274
326
398
472
489
397
411
480
586
768
835
807
793
811
842
854
779
663
587
558
516
514
470
443
500
465
403
382
294
291
294
261
244
319
542
615
592
502
424
543
656
816
876
790
752
675
550
431
208
34
0
0
73
224
479
761
944
1015
968
865
754
710
588
422
207
60
35
181
354
517
667
789
829
790
797
837
688
513
471
549
498
344
73
0
0
0
236
411
541
721
896
986
992
896
838
722
551
428
293
233
293
513
531
525
581
538
492
435
448
630
686
692
915
962
856
622
384
254
157
0
0
0
108
223
284
384
395
514
556
606
644
675
683
771
839
921
940
845
721
628
520
462
480
553
599
613
606
547
450
360
264
208
216
297
300
322
425
577
671
865
991
1021
924
748
529
207
0
0
0
80
182
280
417
514
572
621
763
922
926
819
852
863
823
603
406
355
315
184
49
40
118
174
255
236
452
589
669
689
699
699
807
869
880
873
767
591
457
386
332
349
355
432
526
665
707
704
736
643
607
619
496
337
254
202
83
46
135
191
289
326
327
549
1022
1022
1022
903
651
487
231
81
56
26
124
326
419
532
569
661
649
764
800
720
633
518
505
496
448
461
550
587
616
620
669
734
690
560
390
308
427
719
897
875
665
481
235
0
0
0
0
135
371
420
457
673
657
607
666
729
757
682
591
603
658
657
652
735
623
531
515
438
490
543
576
500
427
529
559
555
591
724
647
477
316
187
12
0
34
316
425
447
458
555
596
632
653
895
1022
1022
1022
770
616
448
301
312
235
137
208
328
239
275
389
452
476
464
440
672
770
813
833
736
603
452
418
371
235
114
104
105
203
454
631
682
706
760
863
1020
1022
893
696
538
409
335
206
113
107
136
320
476
578
534
592
623
646
668
693
713
670
544
464
433
337
303
280
286
319
323
472
839
881
788
720
536
367
296
423
510
565
652
511
411
177
95
336
444
478
477
456
396
433
563
639
711
748
723
624
560
526
508
510
538
525
545
588
570
526
525
541
758
770
635
617
485
289
167
80
126
306
493
564
556
587
604
784
779
635
521
367
262
356
561
558
395
248
276
275
225
353
492
665
743
813
840
772
633
491
473
467
472
466
469
407
387
391
460
514
549
615
689
718
571
503
481
423
368
371
396
409
419
491
531
548
575
588
588
614
619
651
667
639
586
493
415
410
387
310
268
349
457
502
499
491
518
544
512
495
544
575
553
527
535
532
523
523
486
470
448
465
496
508
514
511
519
508
508
521
527
528
541
532
543
538
532
536
545
527
493
479
457
441
448
460
460
461
481
496
525
520
502
510
512
510
505
513
524
525
524
522
516
507
513
512
503
512
509
536
535
515
528
511
493
502
535
525
508
496
488
467
454
441
443
439
443
465
510
561
559
543
530
512
515
519
526
531
531
519
512
514
508
495
491
481
481
485
489
515
522
518
518
519
534
532
515
531
523
515
497
477
460
465
463
446
485
514
552
572
552
519
488
472
452
478
491
499
536
559
568
555
543
517
511
523
531
529
530
524
527
530
521
510
507
508
504
498
489
493
502
495
501
505
494
474
445
466
472
480
482
449
452
483
481
487
513
510
513
518
540
547
531
527
532
525
520
512
504
493
477
468
460
456
466
478
487
496
499
498
506
507
505
505
505
505
498
510
523
532
567
569
560
601
576
521
460
413
374
349
381
330
412
503
543
552
560
557
545
540
528
507
512
511
515
501
500
506
518
539
543
539
536
520
508
497
507
502
499
498
496
497
503
502
483
487
484
492
478
464
456
455
472
507
528
519
525
535
544
548
534
533
523
519
524
531
523
511
499
483
485
496
482
466
469
472
455
455
476
498
511
511
515
517
511
523
505
503
522
530
534
539
524
514
593
630
588
523
484
472
427
386
361
312
369
489
535
525
509
558
606
629
624
599
552
519
487
467
447
451
463
481
504
540
560
582
591
570
559
555
547
543
536
516
502
500
497
502
497
493
507
523
526
519
510
493
483
473
472
481
493
516
522
530
541
523
486
454
434
411
417
427
431
468
500
520
514
530
527
519
502
596
610
572
516
471
432
408
413
408
395
388
420
469
520
542
546
543
532
531
531
534
536
555
575
583
564
536
511
488
459
442
436
417
394
429
489
515
519
519
518
506
508
513
512
521
544
554
548
529
515
520
502
514
513
500
489
460
439
423
427
430
429
430
428
474
491
499
513
523
536
540
547
586
601
600
590
569
529
485
448
410
416
428
426
430
451
483
502
512
517
527
533
535
527
531
527
520
508
508
519
523
528
523
526
527
522
520
515
515
510
508
509
511
507
507
500
504
501
495
503
504
503
503
513
511
513
523
517
514
512
514
514
519
526
519
512
510
517
521
513
510
515
529
527
519
505
494
472
460
487
482
469
460
463
471
471
485
497
508
525
526
513
497
495
487
478
484
478
480
492
504
507
519
531
526
534
558
556
547
551
552
556
553
557
543
539
538
522
502
487
467
453
430
427
451
476
484
487
498
551
577
579
582
569
552
524
487
451
431
423
409
399
400
412
482
534
567
568
574
563
555
535
516
497
490
491
487
493
506
517
525
534
528
529
525
516
509
505
508
502
492
479
472
470
478
492
487
489
503
521
536
534
527
521
525
524
519
514
512
505
506
511
510
499
487
485
478
459
460
457
453
454
463
489
515
521
528
537
540
549
548
546
545
543
553
550
538
529
513
502
491
481
476
467
468
465
468
474
480
484
496
511
529
535
542
535
519
508
513
538
560
566
555
548
522
494
472
443
414
394
386
382
408
449
471
474
486
496
505
533
545
562
579
584
584
594
585
559
547
525
515
507
495
482
468
465
455
451
465
487
496
503
496
497
490
496
495
499
510
510
509
506
519
538
542
536
533
526
523
524
517
510
494
488
487
495
499
510
512
509
508
499
491
492
489
487
482
484
497
506
513
518
511
505
497
489
495
500
506
515
518
527
544
551
542
543
535
525
518
508
497
492
479
463
448
441
448
454
465
484
497
505
521
543
547
544
559
561
549
519
498
471
448
431
423
428
432
437
456
483
493
500
514
532
539
545
553
549
545
537
537
536
530
525
520
519
512
504
500
507
506
513
515
524
521
515
508
510
513
519
508
508
511
520
530
523
522
499
479
455
438
451
469
491
505
528
551
567
579
568
531
498
478
466
460
442
423
416
409
411
407
421
448
499
536
563
579
588
595
600
581
557
535
536
533
540
515
496
497
496
480
463
439
420
412
435
494
543
569
575
588
591
587
554
525
510
501
487
460
412
368
352
351
377
419
474
527
576
617
636
671
685
675
627
598
600
604
571
527
462
395
352
313
270
251
238
275
345
469
644
783
851
847
810
707
576
445
341
301
288
269
272
317
363
451
557
621
713
733
707
683
657
630
555
468
397
284
225
194
135
134
193
292
470
670
789
892
932
923
854
756
665
547
437
338
251
216
221
231
284
358
419
506
635
775
822
788
720
650
588
560
554
541
535
505
461
408
353
318
295
335
388
453
525
570
550
519
490
524
543
494
423
435
426
414
485
530
550
588
697
728
711
721
649
589
531
503
489
487
463
384
330
304
291
288
312
359
453
551
583
642
663
571
481
476
425
363
325
338
440
572
641
661
638
610
557
538
489
400
363
360
413
520
708
816
822
800
767
738
677
625
562
461
359
256
138
41
0
0
39
202
449
667
808
827
830
856
845
778
703
639
593
529
464
370
277
218
221
292
320
336
396
472
518
552
605
626
627
692
788
830
895
905
813
697
600
520
364
199
87
60
106
98
105
152
181
301
473
659
796
879
932
936
919
815
746
694
633
521
437
439
444
309
166
54
0
71
120
236
358
478
590
760
816
811
797
719
668
615
581
555
503
465
433
406
383
376
401
415
443
553
739
800
862
910
939
886
768
614
463
275
89
0
0
0
0
0
157
445
601
714
803
839
855
818
786
911
1021
999
807
688
542
446
272
76
0
0
0
91
208
272
406
526
638
659
708
760
868
980
990
929
824
768
689
582
369
162
71
0
0
0
3
258
442
568
648
698
681
723
794
849
912
1022
1022
960
796
542
321
203
122
0
0
17
186
434
583
566
523
482
553
671
731
658
580
587
498
385
346
398
460
557
664
650
566
461
371
315
307
430
491
539
726
805
820
874
834
746
575
402
266
146
99
142
291
435
451
521
519
511
559
610
709
720
664
686
753
754
540
383
239
76
155
304
359
376
447
518
574
640
641
631
566
483
427
413
442
581
674
752
750
744
731
674
581
560
571
550
484
405
298
273
264
262
240
361
517
619
614
545
538
466
255
118
140
280
450
655
811
894
911
780
619
471
341
187
161
234
371
547
694
787
856
821
656
536
539
659
673
674
719
745
588
291
0
0
0
0
17
185
388
664
770
888
924
922
901
932
886
804
682
602
674
719
707
795
816
634
334
3
0
0
0
0
0
336
819
1004
1020
1001
923
731
487
206
7
0
142
253
386
497
637
794
850
831
799
733
641
542
460
399
378
369
518
702
862
945
889
767
576
415
310
310
283
355
420
415
497
646
817
869
864
772
567
372
249
0
0
0
0
0
95
308
540
807
1022
1022
1021
973
861
725
598
526
451
498
518
503
460
442
426
440
469
650
743
743
793
684
603
566
572
568
460
364
444
422
448
403
244
119
68
171
600
974
929
761
610
390
139
0
67
449
956
1022
871
565
190
30
73
148
229
293
438
543
570
555
641
763
960
1022
1022
919
681
468
254
149
52
179
299
343
534
862
953
854
689
587
432
504
418
384
447
461
292
184
116
144
697
1022
1022
954
689
402
85
0
0
0
131
448
595
535
324
411
764
907
745
544
330
311
421
448
450
552
632
787
914
908
850
720
628
542
489
376
206
86
109
128
231
480
725
875
1022
1022
824
561
376
255
229
281
250
342
376
454
530
498
402
343
387
430
668
1022
1022
905
797
659
334
209
176
178
175
172
166
195
225
390
544
627
758
894
1003
901
765
697
648
663
675
481
274
237
321
232
210
187
97
247
358
521
552
504
451
424
487
658
1022
1022
1022
964
691
287
115
0
0
42
89
240
338
470
573
657
703
759
772
761
780
752
743
700
653
633
529
432
467
587
735
674
540
356
197
114
84
228
444
608
669
625
609
450
385
396
435
289
211
217
280
368
573
722
804
741
712
664
589
543
677
686
694
662
573
491
409
318
283
357
399
532
506
389
313
305
357
368
508
630
752
818
851
816
616
254
163
192
319
483
610
747
883
816
830
799
577
147
27
0
66
149
194
343
513
650
724
709
635
599
601
598
634
627
616
587
542
519
472
444
460
492
508
516
511
499
508
510
523
548
563
539
498
479
448
444
447
451
480
495
512
547
546
523
501
490
486
495
504
508
513
525
531
524
510
501
500
500
504
516
509
496
499
497
494
494
487
486
493
508
544
587
573
556
550
541
531
492
443
375
384
403
491
512
460
426
441
483
537
547
569
572
582
569
528
512
502
493
507
513
511
508
516
512
519
516
508
504
493
486
495
497
505
499
494
503
508
517
505
499
502
502
505
504
493
497
527
537
535
524
514
498
497
471
475
467
494
498
507
514
512
508
500
486
491
495
495
502
515
524
519
519
519
514
512
508
499
490
492
496
495
499
504
511
589
673
668
613
541
454
391
349
295
314
411
482
487
454
475
517
532
530
516
524
535
545
548
545
535
534
535
527
521
515
512
509
515
514
514
513
512
512
515
512
504
492
485
479
468
480
484
484
481
501
509
505
509
513
515
524
579
558
524
518
520
491
465
442
469
488
516
526
498
480
463
461
480
476
474
486
496
503
511
532
539
533
537
532
532
551
586
569
564
604
602
588
539
458
349
346
342
324
338
423
452
472
480
507
539
579
584
579
581
580
566
551
531
515
502
487
480
474
487
498
491
504
514
508
511
503
499
499
504
504
521
526
532
526
516
508
495
487
483
483
486
491
495
486
483
503
529
524
507
495
493
486
484
511
536
527
574
588
572
561
559
526
522
532
506
433
399
399
371
360
370
398
423
454
465
501
548
600
598
586
572
569
551
557
555
543
524
511
497
486
478
472
480
477
489
511
546
587
587
577
555
536
510
